time_s,raw_network_derivative,integrated_bvp,base,segment_id,derivative_supported
0.0,-0.28258270025253296,0.0,,0,True
0.03333333333333333,-0.4234653115272522,-0.28258270025253296,,0,True
0.06666666666666667,-0.3417811393737793,-0.7060480117797852,,0,True
0.1,-0.454491376876831,-1.0478291511535645,,0,True
0.13333333333333333,-0.5321577787399292,-1.5023205280303955,,0,True
0.16666666666666666,-0.4282546043395996,-2.0344783067703247,,0,True
0.2,-0.43382155895233154,-2.4627329111099243,,0,True
0.23333333333333334,-0.3764050006866455,-2.896554470062256,,0,True
0.26666666666666666,-0.46613383293151855,-3.2729594707489014,,0,True
0.3,-0.31347620487213135,-3.73909330368042,,0,True
0.3333333333333333,0.36468803882598877,-4.052569508552551,,0,True
0.36666666666666664,0.30546578764915466,-3.6878814697265625,,0,True
0.4,0.6531957387924194,-3.382415682077408,,0,True
0.43333333333333335,0.9086702466011046,-2.7292199432849884,,0,True
0.4666666666666667,0.03697311878204346,-1.8205496966838837,,0,True
0.5,-0.3608067035675049,-1.7835765779018402,,0,True
0.5333333333333333,-0.24542081356048584,-2.144383281469345,,0,True
0.5666666666666667,-0.3544270396232605,-2.389804095029831,,0,True
0.6,-0.21264201402664185,-2.7442311346530914,,0,True
0.6333333333333333,-0.2159895896911621,-2.9568731486797333,,0,True
0.6666666666666666,-0.00037670135498046875,-3.1728627383708954,,0,True
0.7,-0.11159813404083252,-3.173239439725876,,0,True
0.7333333333333333,-0.11766946315765382,-3.2848375737667084,,0,True
0.7666666666666667,-0.2731473445892334,-3.402507036924362,,0,True
0.8,-0.08797860145568848,-3.6756543815135956,,0,True
0.8333333333333334,-0.31505846977233887,-3.763632982969284,,0,True
0.8666666666666667,-0.38279402256011963,-4.078691452741623,,0,True
0.9,-0.49358677864074707,-4.4614854753017426,,0,True
0.9333333333333333,-0.41386258602142334,-4.95507225394249,,0,True
0.9666666666666667,-0.11238819360733032,-5.368934839963913,,0,True
1.0,0.4053889214992523,-5.481323033571243,,0,True
1.0333333333333334,-0.0013388395309448242,-5.075934112071991,,0,True
1.0666666666666667,-0.09479063749313354,-5.077272951602936,,0,True
1.1,-0.2723315954208374,-5.172063589096069,,0,True
1.1333333333333333,-0.31615573167800903,-5.444395184516907,,0,True
1.1666666666666667,-0.38256251811981207,-5.760550916194916,,0,True
1.2,-0.43048858642578125,-6.143113434314728,,0,True
1.2333333333333334,-0.0026715993881225586,-6.573602020740509,,0,True
1.2666666666666666,-0.198380708694458,-6.576273620128632,,0,True
1.3,-0.1281031370162964,-6.77465432882309,,0,True
1.3333333333333333,0.6653944253921509,-6.902757465839386,,0,True
1.3666666666666667,0.48640644550323486,-6.237363040447235,,0,True
1.4,0.34673070907592773,-5.750956594944,,0,True
1.4333333333333333,-0.2414512038230896,-5.4042258858680725,,0,True
1.4666666666666666,-0.31064581871032715,-5.645677089691162,,0,True
1.5,-0.4578002691268921,-5.956322908401489,,0,True
1.5333333333333334,-0.5089429616928101,-6.414123177528381,,0,True
1.5666666666666667,-0.06919443607330322,-6.923066139221191,,0,True
1.6,-0.19893741607666016,-6.992260575294495,-0.5085807732784714,0,True
1.6333333333333333,-0.41797930002212524,-7.191197991371155,-0.7138378204270541,0,True
1.6666666666666667,0.055533528327941895,-7.60917729139328,-0.675332141455643,0,True
1.7,0.32562094926834106,-7.553643763065338,-0.44092063492932665,0,True
1.7333333333333334,0.26072001457214355,-7.228022813796997,-0.11372766113041075,0,True
1.7666666666666666,-0.27198243141174316,-6.9673027992248535,0.1938550303858088,0,True
1.8,-0.2522349953651428,-7.239285230636597,0.4065302240015399,0,True
1.8333333333333333,-0.449161171913147,-7.4915202260017395,0.5091334071504907,0,True
1.8666666666666667,0.27436748147010803,-7.9406813979148865,0.535214722574386,0,True
1.9,-0.18918335437774655,-7.666313916444778,0.5330925119409822,0,True
1.9333333333333333,-0.2904703617095947,-7.855497270822525,0.5339160842790418,0,True
1.9666666666666666,-0.23798823356628418,-8.14596763253212,0.5385481507666225,0,True
2.0,-0.182076096534729,-8.383955866098404,0.5239252085667954,0,True
2.033333333333333,-0.1456252932548523,-8.566031962633133,0.46103948596931504,0,True
2.066666666666667,-0.3344290256500244,-8.711657255887985,0.3360990560006717,0,True
2.1,-0.517822265625,-9.04608628153801,0.1656562238427503,0,True
2.1333333333333333,-0.5559836626052856,-9.56390854716301,-0.004154035112070323,0,True
2.1666666666666665,-0.04849803447723389,-10.119892209768295,-0.11793155678313186,0,True
2.2,-0.1413993239402771,-10.16839024424553,-0.14136213179152554,0,True
2.2333333333333334,-0.2221299409866333,-10.309789568185806,-0.08268122840016238,0,True
2.2666666666666666,-0.22995400428771973,-10.53191950917244,0.00885937330646162,0,True
2.3,-0.25695472955703735,-10.76187351346016,0.06661986130415391,0,True
2.3333333333333335,-0.2597678303718567,-11.018828243017197,0.039548437772144666,0,True
2.3666666666666667,-0.4252053499221802,-11.278596073389053,-0.08095808371030593,0,True
2.4,-0.5227965116500854,-11.703801423311234,-0.2526810765509824,0,True
2.433333333333333,-0.45921874046325684,-12.226597934961319,-0.3985804525961976,0,True
2.466666666666667,-0.12946194410324097,-12.685816675424576,-0.44251217045207025,0,True
2.5,0.1154567301273346,-12.815278619527817,-0.3481004812794152,0,True
2.533333333333333,-0.204692542552948,-12.699821889400482,-0.13953774967532864,0,True
2.566666666666667,-0.1478482484817505,-12.90451443195343,0.1076340568206944,0,True
2.6,-0.23820430040359497,-13.05236268043518,0.2999937000386933,0,True
2.6333333333333333,-0.29838722944259644,-13.290566980838776,0.36610333438645826,0,True
2.6666666666666665,-0.33423101902008057,-13.588954210281372,0.2851891955088296,0,True
2.7,-0.3609299659729004,-13.923185229301453,0.0945813328411269,0,True
2.7333333333333334,-0.46041250228881836,-14.284115195274353,-0.12589305474214785,0,True
2.7666666666666666,-0.23398178815841675,-14.744527697563171,-0.2870663642400596,0,True
2.8,-0.16641366481781006,-14.978509485721588,-0.32917418981372276,0,True
2.8333333333333335,-0.11238288879394531,-15.144923150539398,-0.2501602089929787,0,True
2.8666666666666667,-0.073222815990448,-15.257306039333344,-0.10932069226497487,0,True
2.9,0.21374797821044922,-15.330528855323792,-0.0011606875378063198,0,True
2.933333333333333,-0.30972617864608765,-15.116780877113342,-0.007635995010351107,0,True
2.966666666666667,-0.48941469192504883,-15.42650705575943,-0.1497625166141197,0,True
3.0,-0.4744986295700073,-15.915921747684479,-0.36555951434230877,0,True
3.033333333333333,-0.18554615974426272,-16.390420377254486,-0.5319362641477275,0,True
3.066666666666667,0.21027499437332153,-16.57596653699875,-0.5233884788284591,0,True
3.1,0.39291408658027643,-16.365691542625427,-0.2764993725729524,0,True
3.1333333333333333,0.3540518879890442,-15.97277745604515,0.17485464663704453,0,True
3.1666666666666665,0.09437090158462523,-15.618725568056107,0.7101707157864079,0,True
3.2,0.034457266330718994,-15.524354666471481,1.168880490072387,0,True
3.2333333333333334,-0.22689378261566162,-15.489897400140762,1.4066750399862866,0,True
3.2666666666666666,-0.4014945030212403,-15.716791182756424,1.3374225523046224,0,True
3.3,-0.16973912715911865,-16.118285685777664,0.950299638435034,0,True
3.3333333333333335,-0.4439470767974853,-16.288024812936783,0.30581441117484853,0,True
3.3666666666666667,-0.49238395690917963,-16.731971889734268,-0.47972552122789885,0,True
3.4,-0.39953005313873285,-17.224355846643448,-1.2555544921701414,0,True
3.433333333333333,-0.31137990951538086,-17.62388589978218,-1.8642489427800564,0,True
3.466666666666667,-0.2051195502281189,-17.93526580929756,-2.1766641103543645,0,True
3.5,0.3954667448997498,-18.14038535952568,-2.1276774917007084,0,True
3.533333333333333,0.491435319185257,-17.74491861462593,-1.7389570276324502,0,True
3.566666666666667,0.4262987375259399,-17.253483295440674,-1.1145739625324746,0,True
3.6,0.25570592284202576,-16.827184557914734,-0.4059592960128243,0,True
3.6333333333333333,0.8820376396179199,-16.571478635072708,0.24102321282620298,0,True
3.6666666666666665,-0.5048444271087646,-15.689440995454788,0.734141148159079,0,True
3.7,-0.19842314720153809,-16.194285422563553,1.0563191243938523,0,True
3.7333333333333334,0.341301828622818,-16.39270856976509,1.2496806417549116,0,True
3.7666666666666666,0.09438017010688782,-16.051406741142273,1.371563749888615,0,True
3.8,-0.004263460636138916,-15.957026571035385,1.4513580419765235,0,True
3.8333333333333335,0.19893410801887512,-15.961290031671524,1.475410919137465,0,True
3.8666666666666667,-0.35049015283584595,-15.762355923652649,1.4049928621119394,0,True
3.9,-0.4724078178405762,-16.112846076488495,1.2105757979065759,0,True
3.933333333333333,-0.34447014331817627,-16.58525389432907,0.8985388258977256,0,True
3.966666666666667,-0.32026219367980957,-16.929724037647247,0.5148794782675382,0,True
4.0,0.027174234390258786,-17.249986231327057,0.12786544297299904,0,True
4.033333333333333,-0.23807477951049807,-17.222811996936798,-0.19581817936813822,0,True
4.066666666666666,-0.3084229230880737,-17.460886776447296,-0.408495606258868,0,True
4.1,-0.23460352420806888,-17.76930969953537,-0.49017696165166313,0,True
4.133333333333334,0.16513741016387942,-18.00391322374344,-0.4523997167027301,0,True
4.166666666666667,-0.05222177505493164,-17.83877581357956,-0.3374680661005323,0,True
4.2,0.09335434436798096,-17.89099758863449,-0.20829230065439672,0,True
4.233333333333333,-0.23502022027969358,-17.79764324426651,-0.1274967379375476,0,True
4.266666666666667,-0.17417573928833008,-18.032663464546204,-0.13349742992809793,0,True
4.3,-0.4206639528274536,-18.206839203834534,-0.22569850301180208,0,True
4.333333333333333,0.14897996187210086,-18.627503156661987,-0.36637846517387274,0,True
4.366666666666666,-0.17066085338592527,-18.478523194789886,-0.49723817147127547,0,True
4.4,-0.4327768087387085,-18.64918404817581,-0.5620733799413326,0,True
4.433333333333334,0.03926891088485718,-19.08196085691452,-0.5279288243470798,0,True
4.466666666666667,0.15617367625236514,-19.042691946029663,-0.39975936481949864,0,True
4.5,0.0018561482429504395,-18.886518269777298,-0.22232691652312234,0,True
4.533333333333333,0.08025157451629639,-18.884662121534348,-0.06411715272078347,0,True
4.566666666666666,-0.23115813732147217,-18.80441054701805,0.012198687850030516,0,True
4.6,-0.36472767591476435,-19.035568684339523,-0.022485307938347195,0,True
4.633333333333334,-0.4913053512573242,-19.400296360254288,-0.15365410834118698,0,True
4.666666666666667,0.09865909814834596,-19.891601711511612,-0.3356959768867414,0,True
4.7,0.12930247187614438,-19.792942613363266,-0.5163189200728031,0,True
4.733333333333333,-0.39083302021026606,-19.66364014148712,-0.6547135688481346,0,True
4.766666666666667,-0.09718632698059082,-20.054473161697388,-0.7243566203269969,0,True
4.8,-0.08879137039184569,-20.15165948867798,-0.7074999326084364,0,True
4.833333333333333,-0.2648966312408447,-20.240450859069824,-0.5934033125870759,0,True
4.866666666666666,0.4209882020950317,-20.50534749031067,-0.38342687657127456,0,True
4.9,0.347752571105957,-20.084359288215637,-0.09587444035767484,0,True
4.933333333333334,0.023796439170837406,-19.73660671710968,0.23776275609382996,0,True
4.966666666666667,-0.4852486848831176,-19.712810277938843,0.5842508126919101,0,True
5.0,0.28425610065460205,-20.19805896282196,0.9163403844635776,0,True
5.033333333333333,0.29934141039848333,-19.91380286216736,1.2086765579099081,0,True
5.066666666666666,-0.07916510105133057,-19.614461451768875,1.429215357981344,0,True
5.1,-0.21753448247909546,-19.693626552820206,1.5397288155035387,0,True
5.133333333333334,-0.37153786420822144,-19.9111610352993,1.507674636354068,0,True
5.166666666666667,-0.21173834800720215,-20.282698899507523,1.3198976012637893,0,True
5.2,-0.31944632530212397,-20.494437247514725,0.9900163807209073,0,True
5.233333333333333,-0.3423222303390503,-20.81388357281685,0.5588515921473565,0,True
5.266666666666667,-0.4513980150222779,-21.1562058031559,0.08957028880574847,0,True
5.3,-0.5112314224243164,-21.607603818178177,-0.3434893786326066,0,True
5.333333333333333,-0.14475321769714355,-22.118835240602493,-0.6737256073208259,0,True
5.366666666666666,-0.33840858936309814,-22.263588458299637,-0.8648855071628195,0,True
5.4,0.06760942935943602,-22.601997047662735,-0.9267558363041865,0,True
5.433333333333334,-0.10710775852203369,-22.5343876183033,-0.9127825048079554,0,True
5.466666666666667,-0.12150061130523682,-22.641495376825333,-0.8960687404510544,0,True
5.5,-0.19258069992065427,-22.76299598813057,-0.9318603494485777,0,True
5.533333333333333,-0.015915513038635254,-22.955576688051224,-1.0236902793074993,0,True
5.566666666666666,-0.3157511353492737,-22.97149220108986,-1.1113561960171818,0,True
5.6,-0.3938362598419189,-23.287243336439133,-1.0913912722213777,0,True
5.633333333333334,-0.29816156625747675,-23.68107959628105,-0.8673084216449577,0,True
5.666666666666667,1.1834871768951416,-23.97924116253853,-0.40928040818318273,0,True
5.7,0.5397602319717408,-22.795753985643387,0.21164815896373723,0,True
5.733333333333333,-0.11574506759643553,-22.255993753671646,0.8430602835126961,0,True
5.766666666666667,-0.254000723361969,-22.37173882126808,1.3176279377938394,0,True
5.8,-0.42370808124542236,-22.62573954463005,1.5244809049475647,0,True
5.833333333333333,-0.21975278854370117,-23.049447625875473,1.443647351960111,0,True
5.866666666666666,-0.32590484619140625,-23.269200414419174,1.1338862516068333,0,True
5.9,-0.17129135131835938,-23.59510526061058,0.6941915252213373,0,True
5.933333333333334,-0.48783087730407715,-23.76639661192894,0.22582049082667738,0,True
5.966666666666667,-0.3244494199752808,-24.254227489233017,-0.1903232286231148,0,True
6.0,-0.11705803871154784,-24.578676909208298,-0.5011405317696669,0,True
6.033333333333333,-0.29435354471206665,-24.695734947919846,-0.6806861971904921,0,True
6.066666666666666,-0.07954883575439453,-24.990088492631912,-0.7272042409590415,0,True
6.1,0.03335118293762206,-25.069637328386307,-0.6600314654157808,0,True
6.133333333333334,-0.09811437129974365,-25.036286145448685,-0.515424933566086,0,True
6.166666666666667,0.28426095843315125,-25.13440051674843,-0.33853763092823846,0,True
6.2,0.03431135416030884,-24.850139558315277,-0.17018728163625296,0,True
6.233333333333333,-0.1218804121017456,-24.81582820415497,-0.03196569228624,0,True
6.266666666666667,-0.2300214767456055,-24.937708616256714,0.08151643493491302,0,True
6.3,0.007295072078704833,-25.16773009300232,0.19466843885878155,0,True
6.333333333333333,0.055161535739898675,-25.160435020923615,0.32819524850031695,0,True
6.366666666666666,0.18125176429748532,-25.105273485183716,0.47526385136096705,0,True
6.4,0.016514778137207028,-24.92402172088623,0.5936610867476843,0,True
6.433333333333334,-0.24548912048339847,-24.907506942749023,0.6209392217658363,0,True
6.466666666666667,-0.3403321504592895,-25.152996063232422,0.504250949318704,0,True
6.5,-0.17444729804992679,-25.49332821369171,0.2282168959910884,0,True
6.533333333333333,-0.3260363936424256,-25.667775511741638,-0.17223820668625708,0,True
6.566666666666666,-0.3741005659103393,-25.993811905384064,-0.6175241253202959,0,True
6.6,-0.4994885921478271,-26.367912471294403,-1.0040900401884851,0,True
6.633333333333334,0.6843053698539734,-26.86740106344223,-1.2334636774419248,0,True
6.666666666666667,-0.22638469934463504,-26.183095693588257,-1.2396310928052634,0,True
6.7,-0.032164573669433594,-26.409480392932892,-1.0053435156258708,0,True
6.733333333333333,0.2696349024772644,-26.441644966602325,-0.566065677568902,0,True
6.766666666666667,0.36309748888015747,-26.17201006412506,-0.005830168597047087,0,True
6.8,0.3465091586112976,-25.808912575244904,0.5560006511838629,0,True
6.833333333333333,0.22011572122573853,-25.462403416633606,0.992537202407379,0,True
6.866666666666666,-0.1258563995361328,-25.242287695407867,1.2091142254225626,0,True
6.9,-0.3092358708381653,-25.368144094944,1.1790767431419085,0,True
6.933333333333334,-0.5703865289688111,-25.677379965782166,0.9552688683662244,0,True
6.966666666666667,0.02039343118667603,-26.247766494750977,0.6470100949628171,0,True
7.0,-0.14139121770858765,-26.2273730635643,0.3716685593184264,0,True
7.033333333333333,-0.10100704431533815,-26.368764281272888,0.20495268893520377,0,True
7.066666666666666,-0.06355941295623779,-26.469771325588226,0.15325371762213932,0,True
7.1,-0.09247374534606932,-26.533330738544464,0.15749987805248555,0,True
7.133333333333334,-0.14973866939544678,-26.625804483890533,0.12360696547634177,0,True
7.166666666666667,-0.1557568311691284,-26.77554315328598,-0.03341640074784066,0,True
7.2,-0.35633790493011475,-26.93129998445511,-0.3477580990196988,0,True
7.233333333333333,-0.4347175955772399,-27.287637889385223,-0.7793071409232487,0,True
7.266666666666667,-0.5838506221771239,-27.722355484962463,-1.219615179883776,0,True
7.3,0.3001093566417694,-28.306206107139587,-1.5280866264131805,0,True
7.333333333333333,-0.03733044862747193,-28.006096750497818,-1.5848134598198358,0,True
7.366666666666666,0.0892939269542694,-28.04342719912529,-1.3372471459020965,0,True
7.4,0.33150985836982727,-27.95413327217102,-0.8219151040193127,0,True
7.433333333333334,0.5664550065994263,-27.622623413801193,-0.15451451304792363,0,True
7.466666666666667,0.27242898941040045,-27.056168407201767,0.5083629554982029,0,True
7.5,0.21181204915046692,-26.783739417791367,1.0245040058313655,0,True
7.533333333333333,-0.2971787452697754,-26.5719273686409,1.3175125539289665,0,True
7.566666666666666,-0.1767309904098511,-26.869106113910675,1.4000530331825136,0,True
7.6,-0.30590009689331055,-27.045837104320526,1.3554994262442326,0,True
7.633333333333334,0.14783471822738647,-27.351737201213837,1.2865960030924037,0,True
7.666666666666667,0.22126394510269162,-27.20390248298645,1.258967519522548,0,True
7.7,-0.08733391761779784,-26.98263853788376,1.2701215348471102,0,True
7.733333333333333,-0.12634217739105225,-27.069972455501556,1.2580159973705312,0,True
7.766666666666667,-0.20928943157196045,-27.19631463289261,1.1392888198273,0,True
7.8,-0.44219362735748285,-27.40560406446457,0.8533745231204591,0,True
7.833333333333333,-0.32868111133575445,-27.847797691822052,0.39146122078199014,0,True
7.866666666666666,-0.30391043424606323,-28.176478803157806,-0.19861772104380815,0,True
7.9,-0.3327056169509887,-28.48038923740387,-0.8283594058552829,0,True
7.933333333333334,-0.44263958930969244,-28.81309485435486,-1.3956133475939962,0,True
7.966666666666667,0.11570143699645996,-29.25573444366455,-1.812387323380001,0,True
8.0,0.27023565769195557,-29.14003300666809,-2.025102091209225,0,True
8.033333333333333,-0.015987694263458255,-28.869797348976135,-2.021585294585365,0,True
8.066666666666666,0.12218761444091795,-28.885785043239594,-1.825529530578572,0,True
8.1,0.15505605936050415,-28.763597428798676,-1.4867531751930707,0,True
8.133333333333333,0.20292213559150693,-28.60854136943817,-1.0746638168436622,0,True
8.166666666666666,0.5578979253768922,-28.405619233846664,-0.6721208651333149,0,True
8.2,0.48980897665023804,-27.847721308469772,-0.35967258162534493,0,True
8.233333333333333,0.0746816098690033,-27.357912331819534,-0.18610857540045558,0,True
8.266666666666667,-0.3810261487960816,-27.28323072195053,-0.13792657622619267,0,True
8.3,0.06178569793701173,-27.664256870746613,-0.13258351484966366,0,True
8.333333333333334,0.10081326961517334,-27.6024711728096,-0.051861992250386985,0,True
8.366666666666667,0.32754775881767273,-27.501657903194427,0.1954953443316567,0,True
8.4,0.4443375468254089,-27.174110144376755,0.6158123908248363,0,True
8.433333333333334,0.5603240728378296,-26.729772597551346,1.111590324218735,0,True
8.466666666666667,0.1294381320476532,-26.169448524713516,1.5158730799122297,0,True
8.5,-0.15278339385986325,-26.040010392665863,1.6660334015848508,0,True
8.533333333333333,-0.44726610183715826,-26.192793786525726,1.4813929764679525,0,True
8.566666666666666,-0.5444149971008301,-26.640059888362885,1.005607987773928,0,True
8.6,-0.48958766460418696,-27.184474885463715,0.39247955525597283,0,True
8.633333333333333,-0.1825350522994995,-27.6740625500679,-0.15752846883809604,0,True
8.666666666666666,0.09295833110809325,-27.8565976023674,-0.4791763764584332,0,True
8.7,0.03512287139892578,-27.763639271259308,-0.504866092344673,0,True
8.733333333333333,0.09213590621948242,-27.728516399860382,-0.2817970535437076,0,True
8.766666666666667,0.31804960966110224,-27.6363804936409,0.05894302681697557,0,True
8.8,-0.3097066283226013,-27.318330883979797,0.36364995838604947,0,True
8.833333333333334,-0.17994749546051025,-27.6280375123024,0.5198808916392549,0,True
8.866666666666667,-0.22190845012664792,-27.80798500776291,0.4965312141911572,0,True
8.9,-0.3949828743934632,-28.029893457889557,0.34563724364915843,0,True
8.933333333333334,-0.35851228237152105,-28.42487633228302,0.16891520890726114,0,True
8.966666666666667,-0.3116320371627807,-28.78338861465454,0.06594634241411017,0,True
9.0,0.28383123874664307,-29.095020651817322,0.08704155851323567,0,True
9.033333333333333,-0.14008557796478274,-28.81118941307068,0.21223525878050697,0,True
9.066666666666666,-0.2647411823272705,-28.95127499103546,0.3662420002779777,0,True
9.1,-0.396955132484436,-29.216016173362732,0.4595661927870073,0,True
9.133333333333333,-0.4174618721008301,-29.612971305847168,0.43167820072329455,0,True
9.166666666666666,-0.317962646484375,-30.030433177947998,0.27498909853054004,0,True
9.2,-0.3450137972831726,-30.348395824432373,0.03323679894560107,0,True
9.233333333333333,-0.45663678646087646,-30.693409621715546,-0.21932703184719923,0,True
9.266666666666667,-0.45315313339233404,-31.150046408176422,-0.4076425770317418,0,True
9.3,-0.27347391843795776,-31.603199541568756,-0.4851899861599009,0,True
9.333333333333334,0.14199090003967282,-31.876673460006714,-0.4538020468295736,0,True
9.366666666666667,-0.3806883096694946,-31.73468255996704,-0.36474997560775085,0,True
9.4,-0.3725965023040771,-32.115370869636536,-0.2980601610524387,0,True
9.433333333333334,-0.39111799001693726,-32.48796737194061,-0.3287554446467891,0,True
9.466666666666667,-0.3625593185424804,-32.87908536195755,-0.4953020295352251,0,True
9.5,-0.358024001121521,-33.24164468050003,-0.7812408324593358,0,True
9.533333333333333,-0.298139750957489,-33.59966868162155,-1.113401024814584,0,True
9.566666666666666,-0.32161772251129145,-33.89780843257904,-1.3771225527784516,0,True
9.6,-0.3796051740646362,-34.21942615509033,-1.448627622144573,0,True
9.633333333333333,-0.4500237703323364,-34.59903132915497,-1.2410521734590017,0,True
9.666666666666666,0.884879469871521,-35.049055099487305,-0.7508066032829801,0,True
9.7,0.46693730354309093,-34.164175629615784,-0.07963042086320914,0,True
9.733333333333333,-0.03441417217254639,-33.69723832607269,0.5903411593222082,0,True
9.766666666666667,-0.3571658134460449,-33.73165249824524,1.065826089098329,0,True
9.8,-0.3426973819732666,-34.088818311691284,1.2217587732914286,0,True
9.833333333333334,-0.3758925795555114,-34.43151569366455,1.0496499613536712,0,True
9.866666666666667,-0.42142432928085327,-34.80740827322006,0.6555058218216409,0,True
9.9,-0.4874883890151977,-35.228832602500916,0.21420453753245225,0,True
9.933333333333334,-0.5100291967391969,-35.71632099151611,-0.09901360283330753,0,True
9.966666666666667,-0.19102776050567627,-36.22635018825531,-0.17569895206229827,0,True
10.0,0.7445231676101685,-36.417377948760986,-0.015289865505325143,0,True
10.033333333333333,-0.0933663845062256,-35.67285478115082,0.27987694368338145,0,True
10.066666666666666,-0.37183368206024164,-35.76622116565704,0.5574632001882962,0,True
10.1,-0.4013381004333496,-36.138054847717285,0.6895381942894452,0,True
10.133333333333333,-0.44159412384033203,-36.539392948150635,0.6274407443655425,0,True
10.166666666666666,-0.40375840663909907,-36.98098707199097,0.41124918072397304,0,True
10.2,-0.17594444751739502,-37.384745478630066,0.1382722945186892,0,True
10.233333333333333,-0.14205503463745117,-37.56068992614746,-0.08523483797253963,0,True
10.266666666666667,-0.3734655380249023,-37.70274496078491,-0.18445224340146835,0,True
10.3,-0.19653618335723877,-38.076210498809814,-0.136003224067953,0,True
10.333333333333334,-0.02011948823928833,-38.27274668216705,0.031893256201614255,0,True
10.366666666666667,-0.08568167686462401,-38.29286617040634,0.2535351298479688,0,True
10.4,-0.1381381154060364,-38.378547847270966,0.4491824402104726,0,True
10.433333333333334,-0.4088035821914673,-38.516685962677,0.5517539443730667,0,True
10.466666666666667,-0.39509648084640503,-38.92548954486847,0.5276045858340556,0,True
10.5,-0.3330915570259094,-39.320586025714874,0.3834135749122169,0,True
10.533333333333333,-0.3138839602470398,-39.653677582740784,0.15835335323016023,0,True
10.566666666666666,-0.4371908903121948,-39.96756154298782,-0.09218070528999402,0,True
10.6,-0.4797683954238891,-40.40475243330002,-0.313930758842734,0,True
10.633333333333333,-0.22597217559814456,-40.88452082872391,-0.4683174285517219,0,True
10.666666666666666,-0.2579808235168457,-41.11049300432205,-0.542132646144364,0,True
10.7,-0.24240481853485107,-41.3684738278389,-0.5495798492061107,0,True
10.733333333333333,-0.2889595031738281,-41.61087864637375,-0.5248831808368517,0,True
10.766666666666667,-0.3214039206504822,-41.89983814954758,-0.507806223849645,0,True
10.8,-0.32593572139739985,-42.22124207019806,-0.5276055517238064,0,True
10.833333333333334,-0.18306905031204224,-42.54717779159546,-0.590535582174491,0,True
10.866666666666667,-0.19501376152038577,-42.7302468419075,-0.6737768758613493,0,True
10.9,-0.3173562288284302,-42.92526060342789,-0.727671251465524,0,True
10.933333333333334,-0.4173756837844849,-43.24261683225632,-0.6889297445056761,0,True
10.966666666666667,-0.23048579692840576,-43.6599925160408,-0.5060706865297022,0,True
11.0,0.31665998697280884,-43.89047831296921,-0.1704313739655107,0,True
11.033333333333333,0.21126192808151245,-43.5738183259964,0.2642923578684062,0,True
11.066666666666666,-0.19444131851196292,-43.36255639791489,0.6912007880538386,0,True
11.1,-0.26916807889938354,-43.55699771642685,0.988939155779985,0,True
11.133333333333333,-0.44576025009155273,-43.82616579532623,1.0706812858712536,0,True
11.166666666666666,-0.38015985488891607,-44.271926045417786,0.9183826057196288,0,True
11.2,-0.46721804141998285,-44.6520859003067,0.5885054517636839,0,True
11.233333333333333,-0.5699265003204346,-45.119303941726685,0.1902918819014619,0,True
11.266666666666667,-0.4667751789093018,-45.68923044204712,-0.15350552567752984,0,True
11.3,-0.40239578485488897,-46.15600562095642,-0.34999858952951585,0,True
11.333333333333334,0.30969747900962824,-46.55840140581131,-0.3683053605651851,0,True
11.366666666666667,-0.2717294692993164,-46.24870392680168,-0.24632810033067196,0,True
11.4,-0.26932901144027704,-46.520433396101,-0.06771511698306652,0,True
11.433333333333334,-0.2552865743637085,-46.789762407541275,0.0790348007446917,0,True
11.466666666666667,-0.3900853395462036,-47.04504898190498,0.13740986512686906,0,True
11.5,-0.3146167993545532,-47.43513432145119,0.09942528877793927,0,True
11.533333333333333,-0.30097973346710205,-47.74975112080574,-0.0002913670921910561,0,True
11.566666666666666,-0.14832663536071775,-48.05073085427284,-0.10455743994605536,0,True
11.6,-0.35583394765853876,-48.19905748963356,-0.15683467007802745,0,True
11.633333333333333,-0.3380545377731323,-48.5548914372921,-0.1200268947406757,0,True
11.666666666666666,-0.05175304412841796,-48.89294597506523,0.011639987902334857,0,True
11.7,-0.15799450874328616,-48.94469901919365,0.20872828680232547,0,True
11.733333333333333,-0.15534257888793948,-49.102693527936935,0.4131466255887498,0,True
11.766666666666667,-0.2939465045928955,-49.258036106824875,0.5559667200869255,0,True
11.8,-0.34516733884811396,-49.55198261141777,0.5816136015361812,0,True
11.833333333333334,-0.33209615945816034,-49.897149950265884,0.4692765632065957,0,True
11.866666666666667,-0.5327389240264893,-50.229246109724045,0.24295670397240446,0,True
11.9,-0.5585758686065674,-50.761985033750534,-0.03462499598709885,0,True
11.933333333333334,-0.42028540372848516,-51.3205609023571,-0.2837871655567456,0,True
11.966666666666667,-0.2081853151321411,-51.74084630608559,-0.4381445612410468,0,True
12.0,-0.02996450662612915,-51.94903162121773,-0.47018988477022694,0,True
12.033333333333333,-0.3330459594726563,-51.97899612784386,-0.3995632536675699,0,True
12.066666666666666,-0.2878761291503906,-52.31204208731651,-0.2809818017917616,0,True
12.1,-0.3355704545974731,-52.599918216466904,-0.18052510511361666,0,True
12.133333333333333,-0.3688075542449951,-52.93548867106438,-0.15265185226512312,0,True
12.166666666666666,-0.2884002923965454,-53.30429622530937,-0.2246872543358953,0,True
12.2,-0.22008073329925534,-53.59269651770592,-0.3885748685023287,0,True
12.233333333333333,-0.41235029697418213,-53.81277725100517,-0.5982205504682547,0,True
12.266666666666667,-0.3819384574890137,-54.225127547979355,-0.7746020263504452,0,True
12.3,-0.44278991222381586,-54.60706600546837,-0.8242659504459281,0,True
12.333333333333334,-0.2401530146598816,-55.049855917692184,-0.6730035676646999,0,True
12.366666666666667,0.3441606760025024,-55.290008932352066,-0.3045488490862434,0,True
12.4,0.2947904169559478,-54.945848256349564,0.21708675103536787,0,True
12.433333333333334,-0.06102037429809571,-54.651057839393616,0.7608296311467175,0,True
12.466666666666667,-0.22786617279052734,-54.71207821369171,1.176973617299682,0,True
12.5,-0.44091409444808966,-54.93994438648224,1.357182211841032,0,True
12.533333333333333,-0.498059868812561,-55.38085848093033,1.2750403080010937,0,True
12.566666666666666,-0.5615549087524414,-55.87891834974289,0.9890921156864406,0,True
12.6,-0.40509897470474243,-56.44047325849533,0.6111063945268485,0,True
12.633333333333333,-0.4496691226959229,-56.84557223320007,0.2575795611216922,0,True
12.666666666666666,-0.1550465822219849,-57.295241355895996,0.006741868601369491,0,True
12.7,-0.37537950277328497,-57.45028793811798,-0.12260486991749138,0,True
12.733333333333333,-0.2800534963607788,-57.825667440891266,-0.1658416296078503,0,True
12.766666666666667,-0.3734102249145508,-58.105720937252045,-0.1878186712367393,0,True
12.8,-0.36224305629730225,-58.479131162166595,-0.25143355920146415,0,True
12.833333333333334,-0.27147746086120605,-58.8413742184639,-0.3909049740272239,0,True
12.866666666666667,-0.33776223659515386,-59.112851679325104,-0.5962801172462704,0,True
12.9,-0.3370192050933838,-59.45061391592026,-0.812072379009447,0,True
12.933333333333334,-0.2762207388877869,-59.78763312101364,-0.9515980714376048,0,True
12.966666666666667,-0.3684535622596741,-60.06385385990143,-0.9265933507681775,0,True
13.0,-0.05882185697555541,-60.4323074221611,-0.6859565554975092,0,True
13.033333333333333,0.3383688926696778,-60.49112927913666,-0.24905499942261086,0,True
13.066666666666666,0.34561285376548767,-60.15276038646698,0.2858187413115086,0,True
13.1,-0.14222782850265503,-59.80714753270149,0.7701143048122446,0,True
13.133333333333333,-0.398235559463501,-59.94937536120415,1.0625507801513667,0,True
13.166666666666666,-0.37930440902709955,-60.34761092066765,1.087130704437347,0,True
13.2,-0.5200988054275513,-60.72691532969475,0.8616615549798834,0,True
13.233333333333333,-0.49496245384216303,-61.2470141351223,0.4847497645331712,0,True
13.266666666666667,-0.45160973072051996,-61.74197658896446,0.09085003080983811,0,True
13.3,-0.19610637426376343,-62.19358631968498,-0.2047384846282109,0,True
13.333333333333334,-0.10412192344665527,-62.389692693948746,-0.34770183618298983,0,True
13.366666666666667,-0.315314769744873,-62.4938146173954,-0.35758637481470845,0,True
13.4,-0.18554967641830444,-62.809129387140274,-0.3095128354655494,0,True
13.433333333333334,-0.3627275824546814,-62.99467906355858,-0.2958216635343357,0,True
13.466666666666667,-0.30874282121658325,-63.35740664601326,-0.384477833096558,0,True
13.5,-0.2483037710189819,-63.66614946722984,-0.5885130250067874,0,True
13.533333333333333,-0.43010836839675903,-63.914453238248825,-0.8550899777369109,0,True
13.566666666666666,-0.27129030227661133,-64.34456160664558,-1.0778900687118793,0,True
13.6,-0.2595651745796203,-64.6158519089222,-1.1319590972519114,0,True
13.633333333333333,-0.2260909080505371,-64.87541708350182,-0.9232854449655744,0,True
13.666666666666666,0.4249547421932221,-65.10150799155235,-0.43636789055294867,0,True
13.7,0.5369084477424622,-64.67655324935913,0.2430180304216864,0,True
13.733333333333333,0.1849921941757202,-64.13964480161667,0.9477475483388329,0,True
13.766666666666667,-0.36554086208343506,-63.95465260744095,1.489672134566826,0,True
13.8,-0.4163898825645446,-64.32019346952438,1.732471429479476,0,True
13.833333333333334,-0.512804388999939,-64.73658335208893,1.6397302432037595,0,True
13.866666666666667,-0.5811779499053955,-65.24938774108887,1.2770865475664326,0,True
13.9,-0.5023548603057861,-65.83056569099426,0.774257356726112,0,True
13.933333333333334,-0.4347196817398072,-66.33292055130005,0.2702595971307763,0,True
13.966666666666667,-0.4479873180389404,-66.76764023303986,-0.1331818814545899,0,True
14.0,-0.23626863956451416,-67.2156275510788,-0.3941219881547736,0,True
14.033333333333333,-0.3254961371421814,-67.45189619064331,-0.5255702517917433,0,True
14.066666666666666,-0.27709370851516724,-67.77739232778549,-0.5710393464937751,0,True
14.1,-0.25297820568084717,-68.05448603630066,-0.5742424442659465,0,True
14.133333333333333,-0.330776572227478,-68.3074642419815,-0.556883265206525,0,True
14.166666666666666,-0.2533440589904785,-68.63824081420898,-0.5131417710559569,0,True
14.2,-0.1680472493171692,-68.89158487319946,-0.4210592381279941,0,True
14.233333333333333,-0.026693761348724362,-69.05963212251663,-0.2630756750285852,0,True
14.266666666666667,-0.19445896148681643,-69.08632588386536,-0.04402396651539524,0,True
14.3,-0.051409840583801276,-69.28078484535217,0.2027043949114489,0,True
14.333333333333334,-0.22026151418685913,-69.33219468593597,0.42309067614908064,0,True
14.366666666666667,-0.2561330795288086,-69.55245620012283,0.5601352288124996,0,True
14.4,-0.3841581344604491,-69.80858927965164,0.5736059964693762,0,True
14.433333333333334,-0.2910515069961548,-70.19274741411209,0.4544376599778246,0,True
14.466666666666667,-0.46014916896820074,-70.48379892110825,0.22901858429276417,0,True
14.5,-0.4991334676742553,-70.94394809007645,-0.04781986254394391,0,True
14.533333333333333,-0.36238789558410645,-71.4430815577507,-0.3093645996160982,0,True
14.566666666666666,-0.18667709827423093,-71.80546945333481,-0.49846723070925497,0,True
14.6,-0.3323801755905151,-71.99214655160904,-0.5862004226588158,0,True
14.633333333333333,-0.12627214193344116,-72.32452672719955,-0.58006484862728,0,True
14.666666666666666,-0.32609117031097407,-72.450798869133,-0.5186163234016654,0,True
14.7,-0.11728286743164064,-72.77689003944397,-0.45485364985667126,0,True
14.733333333333333,-0.18807482719421387,-72.89417290687561,-0.4337157297097218,0,True
14.766666666666667,-0.09692919254302977,-73.08224773406982,-0.47024971536835775,0,True
14.8,-0.39842289686203,-73.17917692661285,-0.5363764411990284,0,True
14.833333333333334,-0.33938717842102056,-73.57759982347488,-0.564982133767776,0,True
14.866666666666667,-0.16222107410430908,-73.9169870018959,-0.47604052936177604,0,True
14.9,0.17896851897239688,-74.07920807600021,-0.21785910381614867,0,True
14.933333333333334,0.11075121164321901,-73.90023955702782,0.19659425797771818,0,True
14.966666666666667,0.44321551918983465,-73.7894883453846,0.6808741021474647,0,True
15.0,-0.2911441922187805,-73.34627282619476,1.1030556757357837,0,True
15.033333333333333,-0.35220432281494146,-73.63741701841354,1.3386412663206186,0,True
15.066666666666666,-0.24039220809936523,-73.98962134122849,1.3219137587001741,0,True
15.1,-0.36184740066528315,-74.23001354932785,1.0716731677551328,0,True
15.133333333333333,-0.45759880542755127,-74.59186094999313,0.6829143975985181,0,True
15.166666666666666,-0.5148979425430297,-75.04945975542068,0.2907107798148843,0,True
15.2,-0.17577171325683594,-75.56435769796371,0.019533265109306867,0,True
15.233333333333333,0.023180663585662842,-75.74012941122055,-0.06501779609585646,0,True
15.266666666666667,-0.23947823047637942,-75.71694874763489,0.016685755653123416,0,True
15.3,0.14561539888381958,-75.95642697811127,0.1653381907947584,0,True
15.333333333333334,-0.2943400144577026,-75.81081157922745,0.2431094169180616,0,True
15.366666666666667,-0.3847017288208007,-76.10515159368515,0.1325414211872617,0,True
15.4,-0.4100332260131836,-76.48985332250595,-0.2089690257839877,0,True
15.433333333333334,-0.41405248641967773,-76.89988654851913,-0.7213324629438657,0,True
15.466666666666667,-0.47719371318817133,-77.31393903493881,-1.2533987585333333,0,True
15.5,-0.48067986965179454,-77.79113274812698,-1.6129088881366969,0,True
15.533333333333333,0.0871272087097168,-78.27181261777878,-1.6397158016339006,0,True
15.566666666666666,0.7320525646209716,-78.18468540906906,-1.2750790630489066,0,True
15.6,0.2698936462402344,-77.45263284444809,-0.5949475014639798,0,True
15.633333333333333,0.5626075267791748,-77.18273919820786,0.21253451231440781,0,True
15.666666666666666,-0.2516177296638489,-76.62013167142868,0.9169719219897963,0,True
15.7,-0.12961614131927493,-76.87174940109253,1.330071596228535,0,True
15.733333333333333,-0.16984272003173828,-77.0013655424118,1.36763100510282,0,True
15.766666666666667,-0.3843342065811157,-77.17120826244354,1.0685040743599357,0,True
15.8,-0.48842811584472656,-77.55554246902466,0.5707308307736452,0,True
15.833333333333334,-0.4881542921066284,-78.04397058486938,0.05771470092674707,0,True
15.866666666666667,-0.27846020460128784,-78.53212487697601,-0.30790038010539506,0,True
15.9,0.15097594261169436,-78.8105850815773,-0.44164444397514646,0,True
15.933333333333334,0.07355189323425294,-78.6596091389656,-0.36395181978461844,0,True
15.966666666666667,0.21284621953964233,-78.58605724573135,-0.18291418552488592,0,True
16.0,-0.4099067449569702,-78.37321102619171,-0.03921668773503512,0,True
16.033333333333335,-0.3112033605575562,-78.78311777114868,-0.03920635289070293,0,True
16.066666666666666,-0.22476494312286374,-79.09432113170624,-0.20794240855326024,0,True
16.1,-0.21784931421279904,-79.3190860748291,-0.4813879020188928,0,True
16.133333333333333,-0.29598814249038696,-79.5369353890419,-0.7360655299404729,0,True
16.166666666666668,-0.11106419563293456,-79.83292353153229,-0.8403556385933822,0,True
16.2,0.15232664346694946,-79.94398772716522,-0.707797294617864,0,True
16.233333333333334,0.2532344162464142,-79.79166108369827,-0.33378176938798315,0,True
16.266666666666666,0.1753050982952118,-79.53842666745186,0.1984427519667268,0,True
16.3,0.3892611265182495,-79.36312156915665,0.7458902066831415,0,True
16.333333333333332,-0.2857803702354431,-78.9738604426384,1.1572784058812835,0,True
16.366666666666667,-0.40427094697952265,-79.25964081287384,1.326268813112344,0,True
16.4,-0.3021868467330933,-79.66391175985336,1.2238766575412088,0,True
16.433333333333334,-0.3404104113578797,-79.96609860658646,0.8984901991274109,0,True
16.466666666666665,-0.4643874168395996,-80.30650901794434,0.44918898800247264,0,True
16.5,-0.5090460777282715,-80.77089643478394,-0.0115357751770033,0,True
16.533333333333335,-0.2711540460586548,-81.2799425125122,-0.3910151822552449,0,True
16.566666666666666,-0.10083663463592529,-81.55109655857086,-0.6368235403320021,0,True
16.6,-0.1891306638717651,-81.65193319320679,-0.7402287957590924,0,True
16.633333333333333,-0.12921160459518435,-81.84106385707855,-0.7241435984649113,0,True
16.666666666666668,-0.3784405589103699,-81.97027546167374,-0.6241895809699458,0,True
16.7,-0.044205904006958,-82.3487160205841,-0.4741736333722818,0,True
16.733333333333334,0.04118633270263672,-82.39292192459106,-0.30136835921695515,0,True
16.766666666666666,-0.06254565715789796,-82.35173559188843,-0.12746448499474772,0,True
16.8,-0.08700978755950926,-82.41428124904633,0.03230202402661794,0,True
16.833333333333332,-0.1507515907287598,-82.50129103660583,0.17353349357047615,0,True
16.866666666666667,-0.12871789932250977,-82.6520426273346,0.3049307297262439,0,True
16.9,-0.30685806274414057,-82.7807605266571,0.44210541477411935,0,True
16.933333333333334,-0.19709467887878418,-83.08761858940125,0.5925290884083859,0,True
16.966666666666665,0.2042080760002136,-83.28471326828003,0.739118899135896,0,True
17.0,-0.27880311012268066,-83.08050519227982,0.8348799482422357,0,True
17.033333333333335,-0.301626205444336,-83.3593083024025,0.8173666522049383,0,True
17.066666666666666,-0.35721874237060547,-83.66093450784683,0.6391044738132786,0,True
17.1,-0.42987775802612305,-84.01815325021744,0.2985371087849874,0,True
17.133333333333333,-0.4489644169807434,-84.44803100824356,-0.14501264737053116,0,True
17.166666666666668,-0.42281591892242437,-84.8969954252243,-0.5815185529383257,0,True
17.2,-0.30033355951309204,-85.31981134414673,-0.8850207763755592,0,True
17.233333333333334,-0.25560450553894043,-85.62014490365982,-0.9625540665736222,0,True
17.266666666666666,0.13045009970664978,-85.87574940919876,-0.7983249390112448,0,True
17.3,0.6814390420913697,-85.74529930949211,-0.47109698951797346,0,True
17.333333333333332,-0.4107570648193359,-85.06386026740074,-0.12999133322095136,0,True
17.366666666666667,-0.18590909242630002,-85.47461733222008,0.06626028584514135,0,True
17.4,-0.24883526563644404,-85.66052642464638,0.019119893818066988,0,True
17.433333333333334,-0.3726152777671814,-85.90936169028282,-0.26441509995150486,0,True
17.466666666666665,-0.3614339232444764,-86.28197696805,-0.6698285423790443,0,True
17.5,-0.25483906269073486,-86.64341089129448,-1.0156643705961972,0,True
17.533333333333335,0.02958148717880249,-86.89824995398521,-1.1221546060834708,0,True
17.566666666666666,0.02750295400619506,-86.86866846680641,-0.8845434864354587,0,True
17.6,0.4317826926708221,-86.84116551280022,-0.32385453706930944,0,True
17.633333333333333,0.9521939754486084,-86.4093828201294,0.4078131770602254,0,True
17.666666666666668,-0.23564076423645017,-85.45718884468079,1.0760658892402808,0,True
17.7,-0.18020105361938477,-85.69282960891724,1.4522952320344371,0,True
17.733333333333334,-0.38607585430145264,-85.87303066253662,1.403983543785877,0,True
17.766666666666666,-0.44503855705261225,-86.25910651683807,0.9472899534303908,0,True
17.8,-0.5209563970565795,-86.70414507389069,0.24218621265687096,0,True
17.833333333333332,-0.4531691074371338,-87.22510147094727,-0.46433089833663277,0,True
17.866666666666667,-0.21295446157455442,-87.6782705783844,-0.9255419872482826,0,True
17.9,0.0014895200729370117,-87.89122503995895,-0.9838019679307882,0,True
17.933333333333334,0.5650357604026796,-87.88973551988602,-0.6295532118140937,0,True
17.966666666666665,0.9718188643455505,-87.32469975948334,-0.005288002774124075,0,True
18.0,-0.326940655708313,-86.35288089513779,0.6522104979410221,0,True
18.033333333333335,-0.1112988591194153,-86.6798215508461,1.1090699902317227,0,True
18.066666666666666,-0.09392857551574707,-86.79112040996552,1.2262402019920704,0,True
18.1,-0.2645852565765381,-86.88504898548126,1.0059382549627087,0,True
18.133333333333333,-0.3377493619918823,-87.1496342420578,0.5799280905511277,0,True
18.166666666666668,-0.23299545049667358,-87.48738360404968,0.1519517090046484,0,True
18.2,-0.04844975471496581,-87.72037905454636,-0.08268816441160709,0,True
18.233333333333334,0.18241780996322632,-87.76882880926132,-0.014024150654219868,0,True
18.266666666666666,0.1574675738811493,-87.5864109992981,0.3354737138754124,0,True
18.3,0.7745016813278198,-87.42894342541695,0.8127897977596718,0,True
18.333333333333332,-0.17727321386337277,-86.65444174408913,1.1889671490409457,0,True
18.366666666666667,-0.3427349328994751,-86.8317149579525,1.2491224829694392,0,True
18.4,-0.43810617923736567,-87.17444989085197,0.8822467182877854,0,True
18.433333333333334,-0.45082592964172363,-87.61255607008934,0.13269945153441165,0,True
18.466666666666665,-0.5190265178680419,-88.06338199973106,-0.8072552678823727,0,True
18.5,-0.4087804555892945,-88.5824085175991,-1.660469184090664,0,True
18.533333333333335,-0.2311112880706787,-88.9911889731884,-2.1626671146531615,0,True
18.566666666666666,0.14996856451034543,-89.22230026125908,-2.163465434583041,0,True
18.6,0.9212168455123901,-89.07233169674873,-1.693007933475113,0,True
18.633333333333333,1.1984972953796387,-88.15111485123634,-0.9605129738470297,0,True
18.666666666666668,-0.3356930017471314,-86.9526175558567,-0.27410839709699514,0,True
18.7,-0.1444792151451111,-87.28831055760384,0.08857080076770904,0,True
18.733333333333334,-0.25189101696014404,-87.43278977274895,-0.0022367801563224175,0,True
18.766666666666666,-0.3919714093208313,-87.68468078970909,-0.4783334023552394,0,True
18.8,-0.19214272499084475,-88.07665219902992,-1.107196068140703,0,True
18.833333333333332,-0.09742605686187744,-88.26879492402077,-1.5876340014575379,0,True
18.866666666666667,0.13139820098876956,-88.36622098088264,-1.6678208755702943,0,True
18.9,0.38358944654464716,-88.23482277989388,-1.244070927388816,0,True
18.933333333333334,0.9835766553878785,-87.85123333334923,-0.40575836622918604,0,True
18.966666666666665,1.0307011604309082,-86.86765667796135,0.593237598909691,0,True
19.0,-0.287344217300415,-85.83695551753044,1.4311889236157684,0,True
19.033333333333335,-0.1775067448616028,-86.12429973483086,1.8461782892716205,0,True
19.066666666666666,-0.44580137729644775,-86.30180647969246,1.7378738578346768,0,True
19.1,-0.5463341474533081,-86.7476078569889,1.1988637809929454,0,True
19.133333333333333,-0.49189972877502436,-87.29394200444221,0.46816613624527137,0,True
19.166666666666668,-0.36863791942596424,-87.78584173321724,-0.16666314168875934,0,True
19.2,-0.012802600860595703,-88.1544796526432,-0.47753351558754975,0,True
19.233333333333334,0.2868062257766723,-88.1672822535038,-0.373923463894179,0,True
19.266666666666666,0.4425983428955078,-87.88047602772713,0.07611816873187491,0,True
19.3,0.24461737275123596,-87.43787768483162,0.6872059858440138,0,True
19.333333333333332,-0.33156049251556396,-87.19326031208038,1.2396250714941173,0,True
19.366666666666667,-0.15437507629394528,-87.52482080459595,1.5660151501006312,0,True
19.4,-0.20088309049606323,-87.67919588088989,1.605421575709643,0,True
19.433333333333334,-0.3387538194656372,-87.88007897138596,1.4089470487359204,0,True
19.466666666666665,-0.3766840696334839,-88.2188327908516,1.104654396371487,0,True
19.5,-0.23583173751831055,-88.59551686048508,0.8411162715371382,0,True
19.533333333333335,-0.07160145044326781,-88.83134859800339,0.7300116024465257,0,True
19.566666666666666,-0.14888238906860352,-88.90295004844666,0.8056018989755555,0,True
19.6,0.15837967395782468,-89.05183243751526,1.0138861485213684,0,True
19.633333333333333,0.17648303508758545,-88.89345276355743,1.2354181865731224,0,True
19.666666666666668,-0.30790382623672485,-88.71696972846985,1.334506624906817,0,True
19.7,-0.2569552659988403,-89.02487355470657,1.2162082266635572,0,True
19.733333333333334,-0.38191872835159296,-89.28182882070541,0.8662955889757263,0,True
19.766666666666666,-0.44155561923980713,-89.663747549057,0.3551318470827846,0,True
19.8,-0.4550507068634032,-90.10530316829681,-0.19691932548039037,0,True
19.833333333333332,0.15602043271064758,-90.56035387516022,-0.6769545766883477,0,True
19.866666666666667,-0.29376745223999023,-90.40433344244957,-1.033279790283725,0,True
19.9,0.06720679998397827,-90.69810089468956,-1.299448541214183,0,True
19.933333333333334,0.12760835886001587,-90.63089409470558,-1.5756225590825599,0,True
19.966666666666665,0.065981924533844,-90.50328573584557,-1.973187673015321,0,True
20.0,-0.33803045749664307,-90.43730381131172,-2.545210483984429,0,True
20.033333333333335,-0.16118550300598147,-90.77533426880836,-3.2356234064390335,0,True
20.066666666666666,-0.2685806155204773,-90.93651977181435,-3.8777982296817117,0,True
20.1,0.11569708585739136,-91.20510038733482,-4.252856905245401,0,True
20.133333333333333,0.5990196466445923,-91.08940330147743,-4.186599158238448,0,True
20.166666666666668,1.2279014587402344,-90.49038365483284,-3.6384330718599442,0,True
20.2,1.4618502855300903,-89.2624821960926,-2.731958256453974,0,True
20.233333333333334,1.3706891536712646,-87.80063191056252,-1.7019938753185304,0,True
20.266666666666666,0.7439178228378297,-86.42994275689125,-0.7789156636163884,0,True
20.3,-0.2145485877990723,-85.68602493405342,-0.07331768835087268,0,True
20.333333333333332,0.3478313684463501,-85.9005735218525,0.467794408173793,0,True
20.366666666666667,0.6820023059844971,-85.55274215340614,1.0018749064989185,0,True
20.4,1.3517583608627317,-84.87073984742165,1.6649388687033473,0,True
20.433333333333334,1.2905199527740476,-83.51898148655891,2.4619500626030377,0,True
20.466666666666665,1.2165310382843018,-82.22846153378487,3.2457014528301507,0,True
20.5,0.026060938835144043,-81.01193049550056,3.796295386569476,0,True
20.533333333333335,-0.38469803333282476,-80.98586955666542,3.9477380805567637,0,True
20.566666666666666,-0.2375146150588989,-81.37056758999825,3.6809279313611434,0,True
20.6,-0.304040253162384,-81.60808220505714,3.129438385468981,0,True
20.633333333333333,-0.2522200345993042,-81.91212245821953,2.5031373499805527,0,True
20.666666666666668,0.7231337428092954,-82.16434249281883,1.9818471304070824,0,True
20.7,0.056548833847045905,-81.44120875000954,1.6404803921426794,0,True
20.733333333333334,-0.1706027388572693,-81.38465991616249,1.4404095788639015,0,True
20.766666666666666,-0.30610287189483637,-81.55526265501976,1.278465951387079,0,True
20.8,-0.30719470977783203,-81.8613655269146,1.0536574322819907,0,True
20.833333333333332,-0.3797491788864136,-82.16856023669243,0.7126728642608569,0,True
20.866666666666667,-0.37169378995895386,-82.54830941557884,0.2596199366019828,0,True
20.9,-0.42038989067077637,-82.9200032055378,-0.26121751209345645,0,True
20.933333333333334,-0.42894148826599127,-83.34039309620857,-0.7914217142093666,0,True
20.966666666666665,-0.2912564873695373,-83.76933458447456,-1.2779096397648633,0,True
21.0,-0.3536710739135742,-84.0605910718441,-1.6793275863806085,0,True
21.033333333333335,-0.4508253931999207,-84.41426214575768,-1.9626098584525273,0,True
21.066666666666666,-0.4850085973739624,-84.8650875389576,-2.0994760494263116,0,True
21.1,-0.24749445915222165,-85.35009613633156,-2.071903611808416,0,True
21.133333333333333,-0.07539761066436768,-85.59759059548378,-1.8863109749691247,0,True
21.166666666666668,0.13903045654296875,-85.67298820614815,-1.5848474876069403,0,True
21.2,-0.185463547706604,-85.53395774960518,-1.2399588866631361,0,True
21.233333333333334,-0.3059602975845337,-85.71942129731178,-0.9295347242247102,0,True
21.266666666666666,-0.4357587099075318,-86.02538159489632,-0.7056076847413826,0,True
21.3,-0.4278227090835571,-86.46114030480385,-0.5756177963675316,0,True
21.333333333333332,-0.24396193027496335,-86.8889630138874,-0.5065432731378575,0,True
21.366666666666667,-0.28110778331756586,-87.13292494416237,-0.4471487725612049,0,True
21.4,-0.35922724008560175,-87.41403272747993,-0.35447878701334856,0,True
21.433333333333334,-0.3544638156890869,-87.77325996756554,-0.21225503828637143,0,True
21.466666666666665,-0.286582350730896,-88.12772378325462,-0.03597475383692318,0,True
21.5,-0.13611388206481934,-88.41430613398552,0.13516422574356243,0,True
21.533333333333335,-0.36967384815216064,-88.55042001605034,0.2570091887628562,0,True
21.566666666666666,-0.3099883794784546,-88.9200938642025,0.30400665532632726,0,True
21.6,-0.5282464027404785,-89.23008224368095,0.2869877754897974,0,True
21.633333333333333,-0.4550073146820068,-89.75832864642143,0.2539201362683866,0,True
21.666666666666668,-0.2518373727798462,-90.21333596110344,0.26964630317567334,0,True
21.7,-0.15822923183441162,-90.46517333388329,0.3828653544211168,0,True
21.733333333333334,-0.13595610857009888,-90.6234025657177,0.5976674794115323,0,True
21.766666666666666,0.031151890754699707,-90.7593586742878,0.8658758700182374,0,True
21.8,-0.163285493850708,-90.7282067835331,1.1055757198613514,0,True
21.833333333333332,-0.46674346923828125,-90.8914922773838,1.2371571022809404,0,True
21.866666666666667,-0.4143823981285096,-91.35823574662209,1.218419333920016,0,True
21.9,-0.42729437351226807,-91.7726181447506,1.0606344658657858,0,True
21.933333333333334,-0.3799315690994263,-92.19991251826286,0.8188498127627941,0,True
21.966666666666665,-0.28160667419433594,-92.57984408736229,0.5642345508855184,0,True
22.0,-0.2951595187187195,-92.86145076155663,0.3537433679322664,0,True
22.033333333333335,-0.20747023820877078,-93.15661028027534,0.2101675973710516,0,True
22.066666666666666,-0.2892061471939087,-93.36408051848412,0.11816017572141405,0,True
22.1,-0.34683895111083984,-93.65328666567802,0.034348549920817074,0,True
22.133333333333333,-0.21907293796539304,-94.00012561678886,-0.0945088109381893,0,True
22.166666666666668,-0.3623698949813842,-94.21919855475426,-0.3114811563607509,0,True
22.2,-0.40241545438766485,-94.58156844973564,-0.6318656055701727,0,True
22.233333333333334,-0.4126485586166381,-94.9839839041233,-1.031522574083598,0,True
22.266666666666666,-0.285305380821228,-95.39663246273994,-1.4447428563614515,0,True
22.3,0.09647980332374573,-95.68193784356117,-1.7738854798135553,0,True
22.333333333333332,-0.2610851526260376,-95.58545804023743,-1.9104598086927274,0,True
22.366666666666667,-0.11944520473480222,-95.84654319286346,-1.7660487781766818,0,True
22.4,0.03841012716293335,-95.96598839759827,-1.3097089888931817,0,True
22.433333333333334,0.5164156556129456,-95.92757827043533,-0.600685816237469,0,True
22.466666666666665,1.3250601291656494,-95.41116261482239,0.20565170983916667,0,True
22.5,-0.09760105609893799,-94.08610248565674,0.8986668164809415,0,True
22.533333333333335,-0.48485803604125977,-94.18370354175568,1.2934874929245683,0,True
22.566666666666666,-0.4516114592552185,-94.66856157779694,1.3108054935458506,0,True
22.6,-0.38901603221893305,-95.12017303705215,1.0070445152794878,0,True
22.633333333333333,-0.4232686758041382,-95.50918906927109,0.5388885565649818,0,True
22.666666666666668,-0.12744206190109253,-95.93245774507523,0.0873109197409651,0,True
22.7,-0.054242253303527825,-96.05989980697632,-0.21648760317427856,0,True
22.733333333333334,-0.12141418457031249,-96.11414206027985,-0.3301519880939219,0,True
22.766666666666666,-0.042433977127075195,-96.23555624485016,-0.2934023704846088,0,True
22.8,0.23128062486648557,-96.27799022197723,-0.18664893066401392,0,True
22.833333333333332,-0.33676695823669434,-96.04670959711075,-0.07919003773518873,0,True
22.866666666666667,-0.2881801724433899,-96.38347655534744,0.00702385879873482,0,True
22.9,-0.3885083198547363,-96.67165672779083,0.09990120321930103,0,True
22.933333333333334,0.4000502526760102,-97.06016504764557,0.24553369393315347,0,True
22.966666666666665,0.05537176132202148,-96.66011479496956,0.4637457103974427,0,True
23.0,0.032535433769226074,-96.60474303364754,0.7215137328347818,0,True
23.033333333333335,-0.16353857517242432,-96.57220759987831,0.9410956688637789,0,True
23.066666666666666,-0.40155196189880366,-96.73574617505074,1.0350182735023046,0,True
23.1,-0.39971816539764404,-97.13729813694954,0.9455751840581137,0,True
23.133333333333333,-0.438653826713562,-97.53701630234718,0.6693243629171697,0,True
23.166666666666668,-0.4749498367309571,-97.97567012906075,0.2592820678934441,0,True
23.2,-0.45387792587280273,-98.4506199657917,-0.1914594071378733,0,True
23.233333333333334,-0.32938003540039057,-98.9044978916645,-0.5762902484645505,0,True
23.266666666666666,-0.28587102890014654,-99.2338779270649,-0.8037779389900536,0,True
23.3,-0.30889385938644415,-99.51974895596504,-0.8222459040648237,0,True
23.333333333333332,0.09715154767036438,-99.82864281535149,-0.6352728648843367,0,True
23.366666666666667,-0.08910173177719115,-99.73149126768112,-0.30355981048335434,0,True
23.4,-0.08402884006500243,-99.82059299945831,0.07023434787470156,0,True
23.433333333333334,0.12854045629501343,-99.90462183952332,0.37245038440672057,0,True
23.466666666666665,-0.4390019774436951,-99.7760813832283,0.5166811237496939,0,True
23.5,-0.543039560317993,-100.215083360672,0.47499806714022796,0,True
23.533333333333335,-0.39110022783279424,-100.75812292098999,0.28725503044919426,0,True
23.566666666666666,-0.43325293064117426,-101.14922314882278,0.041780803753399744,0,True
23.6,-0.3604357242584228,-101.58247607946396,-0.1642284825104148,0,True
23.633333333333333,0.1169723868370056,-101.94291180372238,-0.2651323687868896,0,True
23.666666666666668,-0.29557794332504267,-101.82593941688538,-0.24926604541668826,0,True
23.7,-0.23976135253906253,-102.12151736021042,-0.15550411556454596,0,True
23.733333333333334,-0.17274117469787598,-102.36127871274948,-0.0503324143231545,0,True
23.766666666666666,-0.2556743621826172,-102.53401988744736,0.00011925459417248047,0,True
23.8,-0.39339178800582886,-102.78969424962997,-0.04888562155083764,0,True
23.833333333333332,-0.38150483369827265,-103.1830860376358,-0.21121640664992142,0,True
23.866666666666667,-0.3495115041732788,-103.56459087133408,-0.4708631770966667,0,True
23.9,-0.38581597805023193,-103.91410237550735,-0.7887547047874374,0,True
23.933333333333334,-0.2406517863273621,-104.29991835355759,-1.1097449314811323,0,True
23.966666666666665,-0.08650368452072144,-104.54057013988495,-1.3668775098991928,0,True
24.0,-0.19527029991149902,-104.62707382440567,-1.4851937323355404,0,True
24.033333333333335,-0.17927545309066775,-104.82234412431717,-1.3915047863830574,0,True
24.066666666666666,0.09697207808494568,-105.00161957740784,-1.0358384857390044,0,True
24.1,0.3186041116714477,-104.90464749932289,-0.4216905620710413,0,True
24.133333333333333,0.5163598656654359,-104.58604338765144,0.3704882835720974,0,True
24.166666666666668,0.7352536916732787,-104.06968352198601,1.1872598773161152,0,True
24.2,-0.20016777515411377,-103.33442983031273,1.8431101828049787,0,True
24.233333333333334,-0.3662489652633667,-103.53459760546684,2.184759920918627,0,True
24.266666666666666,-0.3640587329864502,-103.90084657073021,2.147411181758684,0,True
24.3,-0.37724560499191284,-104.26490530371666,1.7750707550238314,0,True
24.333333333333332,-0.4668262004852295,-104.64215090870857,1.1993687686517531,0,True
24.366666666666667,-0.34335291385650635,-105.1089771091938,0.5916423955715352,0,True
24.4,-0.3528912663459777,-105.45233002305031,0.10849845505157071,0,True
24.433333333333334,-0.1512993574142456,-105.80522128939629,-0.1532410437419103,0,True
24.466666666666665,0.08544403314590453,-105.95652064681053,-0.18159383348022906,0,True
24.5,0.09380286931991577,-105.87107661366463,-0.048202982206447934,0,True
24.533333333333335,-0.17307966947555542,-105.77727374434471,0.1194389089121472,0,True
24.566666666666666,-0.3349406719207763,-105.95035341382027,0.18390160088233512,0,True
24.6,-0.15794646739959714,-106.28529408574104,0.046533175521970505,0,True
24.633333333333333,-0.10031116008758544,-106.44324055314064,-0.31561392523205406,0,True
24.666666666666668,-0.4073691368103028,-106.54355171322823,-0.833341635076515,0,True
24.7,-0.44070822000503546,-106.95092085003853,-1.3551726881525723,0,True
24.733333333333334,-0.3939182162284851,-107.39162907004356,-1.689007878227744,0,True
24.766666666666666,-0.14853811264038086,-107.78554728627205,-1.6728031158131214,0,True
24.8,0.586209774017334,-107.93408539891243,-1.2520922807734276,0,True
24.833333333333332,1.319706082344055,-107.3478756248951,-0.5249709077800067,0,True
24.866666666666667,0.13934150338172913,-106.02816954255104,0.28012455228462446,0,True
24.9,-0.38387757539749146,-105.88882803916931,0.8939990686847967,0,True
24.933333333333334,-0.2871350646018982,-106.2727056145668,1.1196836618065253,0,True
24.966666666666665,-0.36862647533416754,-106.5598406791687,0.9095912333846548,0,True
25.0,-0.4255576133728027,-106.92846715450287,0.3745006058643957,0,True
25.033333333333335,-0.3272897005081177,-107.35402476787567,-0.26807165759760143,0,True
25.066666666666666,-0.25585430860519404,-107.68131446838379,-0.7768612731744935,0,True
25.1,-0.038151443004608154,-107.93716877698898,-0.9702958296910261,0,True
25.133333333333333,0.26793333888053894,-107.97532021999359,-0.7857192522901603,0,True
25.166666666666668,0.2269707918167114,-107.70738688111305,-0.2978943618744471,0,True
25.2,0.5703863501548767,-107.48041608929634,0.309175887672041,0,True
25.233333333333334,-0.32968330383300776,-106.91002973914146,0.8091631948068525,0,True
25.266666666666666,-0.04809248447418212,-107.23971304297447,1.0165358658763572,0,True
25.3,-0.3585457801818848,-107.28780552744865,0.8553973744373464,0,True
25.333333333333332,-0.49826884269714355,-107.64635130763054,0.3885668136895656,0,True
25.366666666666667,-0.5217151641845702,-108.14462015032768,-0.20348785660344634,0,True
25.4,-0.4567753076553345,-108.66633531451225,-0.687668573090274,0,True
25.433333333333334,-0.0970984697341919,-109.12311062216759,-0.866414708883633,0,True
25.466666666666665,0.5571683049201965,-109.22020909190178,-0.6565337783485647,0,True
25.5,0.6227130889892578,-108.66304078698158,-0.12400757842513047,0,True
25.533333333333335,-0.07659077644348143,-108.04032769799232,0.5442927347151132,0,True
25.566666666666666,-0.04450404644012451,-108.1169184744358,1.1199749131321919,0,True
25.6,-0.14258301258087155,-108.16142252087593,1.4246102172150354,0,True
25.633333333333333,-0.33878034353256226,-108.3040055334568,1.3922170237797489,0,True
25.666666666666668,-0.5299649238586426,-108.64278587698936,1.0818278637208172,0,True
25.7,-0.41840910911560053,-109.17275080084801,0.6423374611186093,0,True
25.733333333333334,-0.30119109153747553,-109.59115990996361,0.24715804485486648,0,True
25.766666666666666,-0.08749884366989136,-109.89235100150108,0.02463202680096672,0,True
25.8,0.0764385461807251,-109.97984984517097,0.010972013954141501,0,True
25.833333333333332,-0.011237442493438722,-109.90341129899025,0.14304567636514556,0,True
25.866666666666667,-0.3886294960975647,-109.91464874148369,0.2910412143127996,0,True
25.9,-0.2208670377731323,-110.30327823758125,0.3142808496806463,0,True
25.933333333333334,-0.3594210743904114,-110.52414527535439,0.11658208700456978,0,True
25.966666666666665,-0.49424350261688227,-110.8835663497448,-0.31704805531860636,0,True
26.0,-0.46917128562927246,-111.37780985236168,-0.9106540114862144,0,True
26.033333333333335,-0.43304359912872314,-111.84698113799095,-1.5158784111577512,0,True
26.066666666666666,-0.2882431149482727,-112.28002473711967,-1.9553415482389536,0,True
26.1,-0.26602631807327265,-112.56826785206795,-2.0811065486609364,0,True
26.133333333333333,0.1432512402534485,-112.83429417014122,-1.8313767959768856,0,True
26.166666666666668,0.886440098285675,-112.69104292988777,-1.2635770733451452,0,True
26.2,-0.019152522087097164,-111.8046028316021,-0.5441379153757336,0,True
26.233333333333334,0.3789710402488708,-111.8237553536892,0.1090917406854278,0,True
26.266666666666666,-0.290230393409729,-111.44478431344032,0.5106675420043365,0,True
26.3,-0.4148507714271546,-111.73501470685005,0.5796888493947739,0,True
26.333333333333332,-0.4786270856857299,-112.1498654782772,0.3671995010317714,0,True
26.366666666666667,-0.26125526428222656,-112.62849256396294,0.027771998917922668,0,True
26.4,-0.21742546558380124,-112.88974782824516,-0.2498016766760618,0,True
26.433333333333334,-0.0018133521080017088,-113.10717329382896,-0.32061215053567677,0,True
26.466666666666665,0.2634749710559845,-113.10898664593697,-0.1377330673743935,0,True
26.5,-0.0749983787536621,-112.84551167488098,0.2370229666914138,0,True
26.533333333333335,0.025651335716247562,-112.92051005363464,0.6657470933061678,0,True
26.566666666666666,0.04706496000289917,-112.8948587179184,0.9938663567790768,0,True
26.6,-0.2923641204833984,-112.8477937579155,1.1122014817939514,0,True
26.633333333333333,-0.37900662422180176,-113.1401578783989,0.9993201962638749,0,True
26.666666666666668,-0.48537015914916987,-113.5191645026207,0.7287405233096589,0,True
26.7,-0.5163074731826782,-114.00453466176987,0.436512113197761,0,True
26.733333333333334,-0.1757725477218628,-114.52084213495255,0.2602271335298785,0,True
26.766666666666666,0.0483870506286621,-114.69661468267441,0.2752819525448441,0,True
26.8,0.27428191900253296,-114.64822763204575,0.45906493174144447,0,True
26.833333333333332,-0.24542760848999023,-114.37394571304321,0.702404241276796,0,True
26.866666666666667,-0.408075213432312,-114.6193733215332,0.8630921329121345,0,True
26.9,-0.3028136491775512,-115.02744853496552,0.833510444338661,0,True
26.933333333333334,-0.39028775691986084,-115.33026218414307,0.5895798561158913,0,True
26.966666666666665,-0.41002029180526733,-115.72054994106293,0.20200120439372077,0,True
27.0,-0.548299789428711,-116.1305702328682,-0.19136299697491363,0,True
27.033333333333335,-0.38376998901367193,-116.6788700222969,-0.44118290662365667,0,True
27.066666666666666,0.006375491619110107,-117.06264001131058,-0.4514362720407204,0,True
27.1,0.30512607097625727,-117.05626451969147,-0.22743949175387712,0,True
27.133333333333333,0.2294827401638031,-116.75113844871521,0.1176624854943137,0,True
27.166666666666668,-0.3423968553543091,-116.5216557085514,0.406379527302688,0,True
27.2,-0.40712547302246094,-116.86405256390572,0.472330771887707,0,True
27.233333333333334,-0.4736216068267822,-117.27117803692818,0.23177438562955754,0,True
27.266666666666666,-0.35633152723312383,-117.74479964375496,-0.2801662281630287,0,True
27.3,-0.3459188938140869,-118.10113117098808,-0.919496036967349,0,True
27.333333333333332,-0.45612287521362305,-118.44705006480217,-1.4818809809326847,0,True
27.366666666666667,-0.24903166294097898,-118.90317294001579,-1.7736561413916432,0,True
27.4,0.06495532393455505,-119.15220460295677,-1.6854735693763911,0,True
27.433333333333334,0.5974090695381166,-119.08724927902222,-1.2435953605941008,0,True
27.466666666666665,0.7626842856407166,-118.4898402094841,-0.612380025353803,0,True
27.5,0.0440468192100525,-117.72715592384338,-0.035234457034730576,0,True
27.533333333333335,0.06806719303131104,-117.68310910463333,0.2684141261087579,0,True
27.566666666666666,-0.45878791809082026,-117.61504191160202,0.20359831587601612,0,True
27.6,-0.4158163070678711,-118.07382982969284,-0.15329003817590775,0,True
27.633333333333333,-0.41674113273620605,-118.48964613676071,-0.5871712332800093,0,True
27.666666666666668,0.2939512729644776,-118.90638726949692,-0.8433478737899409,0,True
27.7,0.27928113937377935,-118.61243599653244,-0.7469563607199737,0,True
27.733333333333334,0.6437572240829468,-118.33315485715866,-0.28611129417262743,0,True
27.766666666666666,0.852439522743225,-117.68939763307571,0.38068056876255146,0,True
27.8,0.17884707450866702,-116.83695811033249,0.9961126122384555,0,True
27.833333333333332,-0.3693884611129761,-116.65811103582382,1.320411762648933,0,True
27.866666666666667,-0.3483736515045166,-117.0274994969368,1.2364192784654144,0,True
27.9,-0.32601422071456915,-117.37587314844131,0.7946287846326018,0,True
27.933333333333334,-0.258181631565094,-117.70188736915588,0.1831310199788127,0,True
27.966666666666665,-0.19156575202941895,-117.96006900072098,-0.355464375599145,0,True
28.0,0.18950006365776062,-118.1516347527504,-0.6199562813912628,0,True
28.033333333333335,0.18631291389465335,-117.96213468909264,-0.5221153402072958,0,True
28.066666666666666,0.38131543993949885,-117.77582177519798,-0.11102179443494103,0,True
28.1,0.6475186347961426,-117.39450633525848,0.4543430591219713,0,True
28.133333333333333,-0.25812244415283203,-116.74698770046234,0.9707884766287306,0,True
28.166666666666668,-0.17065775394439697,-117.00511014461517,1.267740431872146,0,True
28.2,-0.09432733058929443,-117.17576789855957,1.2642791153173176,0,True
28.233333333333334,-0.38463169336318964,-117.27009522914886,0.9866499631986569,0,True
28.266666666666666,-0.4097508788108825,-117.65472692251205,0.5463948440835593,0,True
28.3,-0.4400503635406494,-118.06447780132294,0.09306469636411248,0,True
28.333333333333332,-0.29894232749938965,-118.50452816486359,-0.24089757606968962,0,True
28.366666666666667,0.11698719859123229,-118.80347049236298,-0.3853424188861604,0,True
28.4,-0.010425984859466553,-118.68648329377174,-0.3517235472375732,0,True
28.433333333333334,-0.31773775815963745,-118.69690927863121,-0.21927662140699547,0,True
28.466666666666665,-0.3002558946609497,-119.01464703679085,-0.09596633311358918,0,True
28.5,-0.16578590869903562,-119.3149029314518,-0.07344234221421755,0,True
28.533333333333335,-0.377987802028656,-119.48068884015083,-0.1936256883596525,0,True
28.566666666666666,-0.3822226524353027,-119.85867664217949,-0.4347675138412219,0,True
28.6,-0.4086828827857971,-120.24089929461479,-0.7179403787340223,0,True
28.633333333333333,-0.5177285671234131,-120.64958217740059,-0.9324239719659266,0,True
28.666666666666668,0.017675817012786865,-121.167310744524,-0.9746077404466355,0,True
28.7,-0.07651138305664061,-121.14963492751122,-0.7884636941849519,0,True
28.733333333333334,0.000613570213317871,-121.22614631056786,-0.39149214062228566,0,True
28.766666666666666,0.22866904735565186,-121.22553274035454,0.12612195663589623,0,True
28.8,-0.1810026168823242,-120.99686369299889,0.6305482981169491,0,True
28.833333333333332,0.005916953086853027,-121.17786630988121,0.9913514989825435,0,True
28.866666666666667,-0.4371044635772705,-121.17194935679436,1.1287363909447639,0,True
28.9,-0.44392758607864374,-121.60905382037163,1.0419655794002374,0,True
28.933333333333334,-0.4820489883422852,-122.05298140645027,0.8063249533773753,0,True
28.966666666666665,-0.47280120849609375,-122.53503039479256,0.5386565485622795,0,True
29.0,0.03610438108444214,-123.00783160328865,0.3456847904262343,0,True
29.033333333333335,-0.15059179067611694,-122.97172722220421,0.2781594841300317,0,True
29.066666666666666,-0.2395801544189453,-123.12231901288033,0.31109882170519654,0,True
29.1,-0.2572664022445679,-123.36189916729927,0.35668577586585287,0,True
29.133333333333333,-0.3980172872543335,-123.61916556954384,0.30129322380672424,0,True
29.166666666666668,-0.2564953565597534,-124.01718285679817,0.051810772913214585,0,True
29.2,-0.2974700331687927,-124.27367821335793,-0.4215651129975221,0,True
29.233333333333334,-0.3478016853332519,-124.57114824652672,-1.0565726093343644,0,True
29.266666666666666,-0.41666090488433843,-124.91894993185997,-1.6958024453015788,0,True
29.3,-0.4051012992858887,-125.33561083674431,-2.1208951251212453,0,True
29.333333333333332,0.024774789810180664,-125.7407121360302,-2.1259996411116786,0,True
29.366666666666667,0.5261374711990356,-125.71593734622002,-1.6110919034780633,0,True
29.4,1.2924731969833374,-125.18979987502098,-0.6534438360753477,0,True
29.433333333333334,0.9464072585105896,-123.89732667803764,0.48839208670785944,0,True
29.466666666666665,0.3380055725574494,-122.95091941952705,1.4567559668859078,0,True
29.5,-0.35926198959350586,-122.6129138469696,1.9342194109103783,0,True
29.533333333333335,-0.4492837190628052,-122.97217583656311,1.7747888799965619,0,True
29.566666666666666,-0.3803791999816894,-123.42145955562592,1.0644840272731848,0,True
29.6,-0.4553754329681396,-123.8018387556076,0.08688262849365166,0,True
29.633333333333333,-0.2947319746017456,-124.25721418857574,-0.7869294022661792,0,True
29.666666666666668,0.2762182056903839,-124.55194616317749,-1.2386371051355562,0,True
29.7,0.48548597097396856,-124.2757279574871,-1.1219936764477676,0,True
29.733333333333334,0.9106728434562682,-123.79024198651314,-0.5180954746422637,0,True
29.766666666666666,0.7302178144454956,-122.87956914305687,0.2955642229651946,0,True
29.8,0.30386644601821894,-122.14935132861137,0.9531304905396912,0,True
29.833333333333332,-0.31925225257873535,-121.84548488259315,1.1448196248446838,0,True
29.866666666666667,-0.3588303327560425,-122.16473713517189,0.740323731574991,0,True
29.9,-0.425126850605011,-122.52356746792793,-0.15765340459054863,0,True
29.933333333333334,-0.3999014496803284,-122.94869431853294,-1.2486583454152045,0,True
29.966666666666665,-0.3527236580848694,-123.34859576821327,-2.1435463611517576,0,True
30.0,-0.026549220085144043,-123.70131942629814,-2.5088340243230114,0,True
30.033333333333335,0.8873296380043032,-123.72786864638329,-2.196255054303894,0,True
30.066666666666666,1.365939378738403,-122.84053900837898,-1.3062252365129552,0,True
30.1,1.1293771266937256,-121.47459962964058,-0.15031926403054532,0,True
30.133333333333333,0.3618270456790924,-120.34522250294685,0.8811767861049059,0,True
30.166666666666668,-0.22114026546478271,-119.98339545726776,1.4893132229716277,0,True
30.2,-0.3481158018112182,-120.20453572273254,1.5902210674344026,0,True
30.233333333333334,-0.4266926050186157,-120.55265152454376,1.3309127337896125,0,True
30.266666666666666,-0.25013470649719244,-120.97934412956238,0.9940915360883418,0,True
30.3,1.0062236785888672,-121.22947883605957,0.8465792671113963,0,True
30.333333333333332,0.10974061489105223,-120.2232551574707,1.0110762270079474,0,True
30.366666666666667,0.6250695586204529,-120.11351454257965,1.4224828591861864,0,True
30.4,0.12433660030364989,-119.4884449839592,1.88025142561649,0,True
30.433333333333334,-0.15039157867431643,-119.36410838365555,2.158977472664463,0,True
30.466666666666665,-0.22499394416809082,-119.51449996232986,2.1182557599912535,0,True
30.5,-0.31852251291275024,-119.73949390649796,1.7628463827973748,0,True
30.533333333333335,-0.37480545043945307,-120.0580164194107,1.2325408060659142,0,True
30.566666666666666,-0.3525152206420898,-120.43282186985016,0.7325117132099704,0,True
30.6,0.47447407245635986,-120.78533709049225,0.43761481726411616,0,True
30.633333333333333,0.3391697406768799,-120.31086301803589,0.4128732121111827,0,True
30.666666666666668,0.04519236087799073,-119.97169327735901,0.5843196924529308,0,True
30.7,0.2210512757301331,-119.92650091648102,0.7698080268059702,0,True
30.733333333333334,-0.3491740226745605,-119.70544964075089,0.7514182964474929,0,True
30.766666666666666,-0.3335441350936889,-120.05462366342545,0.3575343432689959,0,True
30.8,-0.4733264446258545,-120.38816779851913,-0.47325352661039194,0,True
30.833333333333332,-0.467264175415039,-120.86149424314499,-1.6622446919243197,0,True
30.866666666666667,-0.460140585899353,-121.32875841856003,-2.999446920441918,0,True
30.9,-0.4095553755760193,-121.78889900445938,-4.189285444553513,0,True
30.933333333333334,0.35192459821701055,-122.1984543800354,-4.926853226638321,0,True
30.966666666666665,0.2562701404094696,-121.84652978181839,-4.990419015996002,0,True
31.0,0.9491881132125853,-121.59025964140892,-4.325060107206831,0,True
31.033333333333335,1.2613384723663332,-120.64107152819633,-3.0857150082338434,0,True
31.066666666666666,1.4927392005920408,-119.37973305583,-1.6120344857839788,0,True
31.1,1.3824011087417603,-117.88699385523796,-0.32608615402021385,0,True
31.133333333333333,0.15878647565841675,-116.5045927464962,0.42236017111954255,0,True
31.166666666666668,-0.4361828565597533,-116.34580627083778,0.5018823097779094,0,True
31.2,-0.40522122383117676,-116.78198912739754,0.06317482518193708,0,True
31.233333333333334,0.13642072677612302,-117.18721035122871,-0.5212777348191865,0,True
31.266666666666666,0.6839587688446044,-117.05078962445259,-0.8193480130993049,0,True
31.3,1.1213352680206299,-116.36683085560799,-0.5268956114559646,0,True
31.333333333333332,0.9024529457092285,-115.24549558758736,0.4044405799059939,0,True
31.366666666666667,1.421525716781616,-114.34304264187813,1.7498146842000613,0,True
31.4,1.1733038425445557,-112.92151692509651,3.1039198552315757,0,True
31.433333333333334,0.18150189518928528,-111.74821308255196,4.042276406716209,0,True
31.466666666666665,-0.4345380663871765,-111.56671118736267,4.285879567217403,0,True
31.5,-0.47856760025024414,-112.00124925374985,3.8024813203187424,0,True
31.533333333333335,-0.45452570915222174,-112.47981685400009,2.8049512789524274,0,True
31.566666666666666,-0.45419901609420776,-112.93434256315231,1.654477522256162,0,True
31.6,-0.16184121370315552,-113.38854157924652,0.7158447030072974,0,True
31.633333333333333,-0.2478694319725037,-113.55038279294968,0.2239250819723076,0,True
31.666666666666668,0.9412750005722046,-113.79825222492218,0.20889935568113244,0,True
31.7,0.3499894440174103,-112.85697722434998,0.5047738692366551,0,True
31.733333333333334,-0.12348270416259764,-112.50698778033257,0.8359310073439651,0,True
31.766666666666666,-0.3955403566360474,-112.63047048449516,0.9433849497175694,0,True
31.8,-0.43507480621337885,-113.02601084113121,0.6930891346283024,0,True
31.833333333333332,-0.4829685688018799,-113.46108564734459,0.12074128376973521,0,True
31.866666666666667,-0.43614113330841064,-113.94405421614647,-0.5971271829500064,0,True
31.9,-0.39456266164779663,-114.38019534945488,-1.2238160398026094,0,True
31.933333333333334,0.0009326934814453127,-114.77475801110268,-1.5586314688201002,0,True
31.966666666666665,0.052903831005096436,-114.77382531762123,-1.5131405042162982,0,True
32.0,0.30893552303314203,-114.72092148661613,-1.141884127145672,0,True
32.03333333333333,0.290645718574524,-114.41198596358299,-0.6180135315075579,0,True
32.06666666666667,-0.04574775695800781,-114.12134024500847,-0.1637889139930469,0,True
32.1,-0.32748156785964966,-114.16708800196648,0.036840599229082886,0,True
32.13333333333333,-0.421343445777893,-114.49456956982613,-0.09153333049893661,0,True
32.166666666666664,-0.44358646869659424,-114.91591301560402,-0.4907908532517881,0,True
32.2,-0.4317765235900879,-115.35949948430061,-0.9977036607487313,0,True
32.233333333333334,-0.0746147632598877,-115.7912760078907,-1.4119216609026464,0,True
32.266666666666666,-0.21578299999237063,-115.86589077115059,-1.5759315213702623,0,True
32.3,-0.06447482109069826,-116.08167377114296,-1.437193743610981,0,True
32.333333333333336,0.5350778698921204,-116.14614859223366,-1.069532311663849,0,True
32.36666666666667,0.39710351824760437,-115.61107072234154,-0.6426791670902317,0,True
32.4,0.16318947076797483,-115.21396720409393,-0.3454925109233383,0,True
32.43333333333333,-0.24525213241577148,-115.05077773332596,-0.2909182601216961,0,True
32.46666666666667,-0.36936247348785406,-115.29602986574173,-0.44907144064748594,0,True
32.5,-0.3216152787208557,-115.66539233922958,-0.6502385145508214,0,True
32.53333333333333,-0.24174833297729492,-115.98700761795044,-0.666884656716939,0,True
32.56666666666667,0.9263993501663207,-116.22875595092773,-0.3394291044021357,0,True
32.6,0.7801488041877745,-115.30235660076141,0.3199217416005072,0,True
32.63333333333333,1.1095958948135376,-114.52220779657364,1.1071369089615346,0,True
32.666666666666664,-0.38885521888732905,-113.4126119017601,1.7094696765370165,0,True
32.7,-0.22976481914520266,-113.80146712064743,1.852000666711031,0,True
32.733333333333334,-0.4496207237243652,-114.03123193979263,1.4317917729368828,0,True
32.766666666666666,-0.4657853841781616,-114.480852663517,0.574499080940441,0,True
32.8,-0.5675692558288574,-114.94663804769516,-0.408421284060868,0,True
32.833333333333336,-0.4204729795455933,-115.51420730352402,-1.1405107186651215,0,True
32.86666666666667,0.7911535501480101,-115.93468028306961,-1.3307423373309781,0,True
32.9,0.9175341129302979,-115.1435267329216,-0.8936186435142299,0,True
32.93333333333333,0.6638126373291017,-114.2259926199913,0.013207842849494422,0,True
32.96666666666667,1.083833932876587,-113.5621799826622,1.052150011610826,0,True
33.0,-0.3314673900604248,-112.47834604978561,1.8413739424049258,0,True
33.03333333333333,-0.18627125024795535,-112.80981343984604,2.102611715992721,0,True
33.06666666666667,-0.3410848379135132,-112.996084690094,1.7599926673129758,0,True
33.1,-0.3645646572113037,-113.33716952800751,0.9562012819195072,0,True
33.13333333333333,-0.4523865580558777,-113.70173418521881,-0.010077580384022953,0,True
33.166666666666664,-0.31221246719360346,-114.15412074327469,-0.795473259815213,0,True
33.2,0.10583344101905823,-114.46633321046829,-1.133955018689159,0,True
33.233333333333334,0.2578498125076294,-114.36049976944923,-0.9320113073902856,0,True
33.266666666666666,1.1997883319854739,-114.1026499569416,-0.3040002852927113,0,True
33.3,0.6130726337432861,-112.90286162495613,0.4709382104279025,0,True
33.333333333333336,-0.3235177993774414,-112.28978899121284,1.0602480783058463,0,True
33.36666666666667,-0.3066561222076416,-112.61330679059029,1.212890717211847,0,True
33.4,-0.4155121445655822,-112.91996291279793,0.8571346301606133,0,True
33.43333333333333,-0.47515821456909185,-113.33547505736351,0.12031548743072452,0,True
33.46666666666667,-0.5302873849868774,-113.8106332719326,-0.7298833766249337,0,True
33.5,-0.10310673713684082,-114.34092065691948,-1.3920165777529512,0,True
33.53333333333333,0.28112539649009705,-114.44402739405632,-1.643482934398739,0,True
33.56666666666667,0.04350322484970093,-114.16290199756622,-1.4199060411439437,0,True
33.6,0.4852581918239593,-114.11939877271652,-0.8349362755956073,0,True
33.63333333333333,1.1176800727844238,-113.63414058089256,-0.13431681940605417,0,True
33.666666666666664,-0.44327747821807867,-112.51646050810814,0.4007364255148787,0,True
33.7,-0.33604419231414795,-112.95973798632622,0.5660956353367577,0,True
33.733333333333334,-0.3386175632476806,-113.29578217864037,0.3160928680498287,0,True
33.766666666666666,-0.3823809027671814,-113.63439974188805,-0.2228726176846108,0,True
33.8,-0.34717988967895513,-114.01678064465523,-0.8093009107137199,0,True
33.833333333333336,0.10295432806015015,-114.36396053433418,-1.1851379874550014,0,True
33.86666666666667,0.2792017161846161,-114.26100620627403,-1.1750805904421797,0,True
33.9,0.21874582767486572,-113.98180449008942,-0.7507857587811743,0,True
33.93333333333333,0.5391759872436523,-113.76305866241455,-0.039024857204517864,0,True
33.96666666666667,0.7796438932418823,-113.2238826751709,0.7276883669926453,0,True
34.0,0.12175270915031433,-112.44423878192902,1.3011894105272988,0,True
34.03333333333333,-0.38159382343292236,-112.3224860727787,1.5161859152766177,0,True
34.06666666666667,-0.4662927389144897,-112.70407989621162,1.355613992993331,0,True
34.1,-0.39239478111267095,-113.17037263512611,0.9501680646450663,0,True
34.13333333333333,-0.2671701908111572,-113.56276741623878,0.5107497111005053,0,True
34.166666666666664,0.45591855049133295,-113.82993760704994,0.22824956304266436,0,True
34.2,0.2041109800338745,-113.37401905655861,0.19072639176481473,0,True
34.233333333333334,0.11851468682289122,-113.16990807652473,0.354936099333884,0,True
34.266666666666666,-0.2270383834838867,-113.05139338970184,0.5772785104108925,0,True
34.3,-0.022255539894104004,-113.27843177318573,0.6803233311368053,0,True
34.333333333333336,-0.24329793453216556,-113.30068731307983,0.5229915431068409,0,True
34.36666666666667,-0.2695175409317016,-113.543985247612,0.05279660457061996,0,True
34.4,-0.38205814361572266,-113.8135027885437,-0.6691830975529992,0,True
34.43333333333333,-0.47432565689086914,-114.19556093215942,-1.4749876989736488,0,True
34.46666666666667,-0.12243801355361938,-114.6698865890503,-2.13037558675459,0,True
34.5,-0.05936384201049805,-114.79232460260391,-2.4047776710790423,0,True
34.53333333333333,0.34832680225372314,-114.85168844461441,-2.153759652128174,0,True
34.56666666666667,0.8293610215187072,-114.50336164236069,-1.3855579516047143,0,True
34.6,1.0424591302871702,-113.67400062084198,-0.28032916217463905,0,True
34.63333333333333,1.1117076873779297,-112.63154149055481,0.8572700475569703,0,True
34.666666666666664,-0.2536828517913818,-111.51983380317688,1.7034185495964327,0,True
34.7,-0.2997040748596191,-111.77351665496826,2.036252998226492,0,True
34.733333333333334,-0.3773133754730224,-112.07322072982788,1.8157897732913122,0,True
34.766666666666666,-0.38437086343765264,-112.4505341053009,1.186065651621504,0,True
34.8,-0.23631548881530756,-112.83490496873856,0.4052171375622431,0,True
34.833333333333336,-0.0811888575553894,-113.07122045755386,-0.2587189817368293,0,True
34.86666666666667,-0.1067548394203186,-113.15240931510925,-0.6228070814152269,0,True
34.9,0.1712861061096191,-113.25916415452957,-0.6441921962489565,0,True
34.93333333333333,0.08297327160835266,-113.08787804841995,-0.4216040651342563,0,True
34.96666666666667,1.0395915508270264,-113.0049047768116,-0.14487648815425966,0,True
35.0,-0.23863732814788818,-111.96531322598457,-0.007313866891928143,0,True
35.03333333333333,-0.338607132434845,-112.20395055413246,-0.11163092866154707,0,True
35.06666666666667,-0.33657437562942505,-112.5425576865673,-0.41299385620924733,0,True
35.1,-0.1848875880241394,-112.87913206219673,-0.7339506147533674,0,True
35.13333333333333,0.2825678586959839,-113.06401965022087,-0.8497591229183201,0,True
35.166666666666664,0.6138960719108583,-112.78145179152489,-0.6022824742253197,0,True
35.2,0.8409966826438904,-112.16755571961403,0.015151768428178008,0,True
35.233333333333334,0.7332246899604797,-111.32655903697014,0.8434513102942247,0,True
35.266666666666666,0.22190910577774048,-110.59333434700966,1.6193631002306341,0,True
35.3,0.1596835255622864,-110.37142524123192,2.0817960824006887,0,True
35.333333333333336,-0.40909963846206665,-110.21174171566963,2.0734011419642937,0,True
35.36666666666667,-0.413166880607605,-110.6208413541317,1.5950750127029036,0,True
35.4,-0.47208321094512934,-111.0340082347393,0.795924968893275,0,True
35.43333333333333,-0.29671335220336914,-111.50609144568443,-0.09041533713264557,0,True
35.46666666666667,0.20611256361007693,-111.8028047978878,-0.8322997174478672,0,True
35.5,-0.022922635078430176,-111.59669223427773,-1.2740598768638218,0,True
35.53333333333333,-0.013941049575805666,-111.61961486935616,-1.3735195284961061,0,True
35.56666666666667,0.3806545734405517,-111.63355591893196,-1.1981830735396803,0,True
35.6,0.5867812037467957,-111.25290134549141,-0.888872311373211,0,True
35.63333333333333,0.53015398979187,-110.66612014174461,-0.6031258496805412,0,True
35.666666666666664,-0.19108307361602783,-110.13596615195274,-0.45344124449272927,0,True
35.7,-0.17875128984451294,-110.32704922556877,-0.46290694455899634,0,True
35.733333333333334,0.1901934742927551,-110.50580051541328,-0.5610536179902108,0,True
35.766666666666666,0.3588700592517852,-110.31560704112053,-0.6241816378920217,0,True
35.8,0.5622573494911194,-109.95673698186874,-0.5381513246345366,0,True
35.833333333333336,0.45641571283340454,-109.39447963237762,-0.25119595144054935,0,True
35.86666666666667,0.3164596259593963,-108.93806391954422,0.20349956237193767,0,True
35.9,-0.06427037715911865,-108.62160429358482,0.7160316949353921,0,True
35.93333333333333,0.8551985025405885,-108.68587467074394,1.129344519200517,0,True
35.96666666666667,0.3479486107826233,-107.83067616820335,1.283349768064421,0,True
36.0,-0.5474586486816406,-107.48272755742073,1.0695756924777087,0,True
36.03333333333333,-0.4443567991256714,-108.03018620610237,0.4825344754552084,0,True
36.06666666666667,-0.3671268820762634,-108.47454300522804,-0.3580535140898473,0,True
36.1,-0.26268088817596436,-108.8416698873043,-1.2324810734919427,0,True
36.13333333333333,0.1378164887428284,-109.10435077548027,-1.8871653783905162,0,True
36.166666666666664,0.2674753963947296,-108.96653428673744,-2.116044776273007,0,True
36.2,0.07667827606201172,-108.69905889034271,-1.8293159817913687,0,True
36.233333333333334,0.6758956909179688,-108.6223806142807,-1.0889059304186623,0,True
36.266666666666666,1.323615312576294,-107.94648492336273,-0.09766606521603739,0,True
36.3,0.9214411377906799,-106.62286961078644,0.863253020543512,0,True
36.333333333333336,-0.28594768047332764,-105.70142847299576,1.536805587159236,0,True
36.36666666666667,-0.40475368499755854,-105.98737615346909,1.7914248381547275,0,True
36.4,-0.3945828676223755,-106.39212983846664,1.6666976803755842,0,True
36.43333333333333,-0.2809865474700928,-106.78671270608902,1.335119979662374,0,True
36.46666666666667,0.10806977748870848,-107.06769925355911,1.0029653864907078,0,True
36.5,0.25041598081588745,-106.9596294760704,0.80776370883162,0,True
36.53333333333333,-0.12861788272857666,-106.70921349525452,0.7653581328803167,0,True
36.56666666666667,-0.12051200866699217,-106.8378313779831,0.7857089399378363,0,True
36.6,-0.220388650894165,-106.95834338665009,0.7385623187018986,0,True
36.63333333333333,-0.4102984666824341,-107.17873203754425,0.5298303099899763,0,True
36.666666666666664,-0.5007047653198243,-107.58903050422668,0.1523809035965987,0,True
36.7,-0.4952541589736939,-108.08973526954651,-0.30852140081320717,0,True
36.733333333333334,-0.38310551643371576,-108.5849894285202,-0.7145212428677137,0,True
36.766666666666666,-0.13557881116867065,-108.96809494495392,-0.9390690472256086,0,True
36.8,-0.1426355242729187,-109.10367375612259,-0.9277895386901592,0,True
36.833333333333336,0.3263222575187683,-109.24630928039551,-0.7258307551187748,0,True
36.86666666666667,-0.09041261672973633,-108.91998702287674,-0.458032432024375,0,True
36.9,-0.3342832326889038,-109.01039963960648,-0.2697357838513101,0,True
36.93333333333333,-0.42607277631759644,-109.34468287229538,-0.2564872437562876,0,True
36.96666666666667,-0.430460810661316,-109.77075564861298,-0.4177835176416878,0,True
37.0,-0.47635722160339355,-110.20121645927429,-0.657379547824602,0,True
37.03333333333333,-0.3668768405914307,-110.67757368087769,-0.8288951559082657,0,True
37.06666666666667,-0.09299874305725096,-111.04445052146912,-0.8048937439505288,0,True
37.1,0.24282813072204593,-111.13744926452637,-0.5379182503746183,0,True
37.13333333333333,0.06176084280014038,-110.89462113380432,-0.0851325002057549,0,True
37.166666666666664,0.18011271953582764,-110.83286029100418,0.41546215025496613,0,True
37.2,-0.43274247646331787,-110.65274757146835,0.805393747254229,0,True
37.233333333333334,-0.532982587814331,-111.08549004793167,0.9722993526842677,0,True
37.266666666666666,-0.44376868009567255,-111.618472635746,0.8907659711332686,0,True
37.3,-0.27633023262023926,-112.06224131584167,0.6220378935304017,0,True
37.333333333333336,-0.4758434295654297,-112.33857154846191,0.2801871491621566,0,True
37.36666666666667,-0.46088957786560053,-112.81441497802734,-0.014698198451541548,0,True
37.4,-0.27720558643341064,-113.27530455589294,-0.17790991383538132,0,True
37.43333333333333,-0.071780264377594,-113.55251014232635,-0.1853261940912595,0,True
37.46666666666667,-0.2024150490760803,-113.62429040670395,-0.0766032004063192,0,True
37.5,-0.07205784320831297,-113.82670545578003,0.06461032815691371,0,True
37.53333333333333,-0.31202840805053716,-113.89876329898834,0.1463777275371535,0,True
37.56666666666667,-0.43659377098083496,-114.21079170703888,0.10580527793686803,0,True
37.6,-0.39512193202972407,-114.64738547801971,-0.06726839917057963,0,True
37.63333333333333,-0.3909305930137635,-115.04250741004944,-0.3289777055787783,0,True
37.666666666666664,-0.35035812854766846,-115.4334380030632,-0.6005769827227868,0,True
37.7,-0.09639203548431395,-115.78379613161087,-0.7973754731255276,0,True
37.733333333333334,-0.0926614999771118,-115.88018816709518,-0.854725681176401,0,True
37.766666666666666,-0.001514136791229248,-115.9728496670723,-0.7427060054850351,0,True
37.8,0.0021748542785644527,-115.97436380386353,-0.4686566006120326,0,True
37.833333333333336,-0.038926899433135986,-115.97218894958496,-0.07264702843414904,0,True
37.86666666666667,-0.030317842960357663,-116.0111158490181,0.378733307982065,0,True
37.9,0.40362948179244995,-116.04143369197845,0.799913456421874,0,True
37.93333333333333,-0.17297744750976565,-115.637804210186,1.1000397077890156,0,True
37.96666666666667,-0.15835034847259521,-115.81078165769577,1.2060625951063124,0,True
38.0,-0.41351145505905157,-115.96913200616837,1.089118647874973,0,True
38.03333333333333,-0.42841625213623047,-116.38264346122742,0.7804523178250684,0,True
38.06666666666667,-0.31367605924606323,-116.81105971336365,0.36612229952335046,0,True
38.1,-0.20201724767684937,-117.12473577260971,-0.039366229491890864,0,True
38.13333333333333,-0.27732020616531367,-117.32675302028656,-0.33070190865593324,0,True
38.166666666666664,-0.133400559425354,-117.60407322645187,-0.44770737048238834,0,True
38.2,-0.2811633348464965,-117.73747378587723,-0.39853867484453964,0,True
38.233333333333334,0.2898679673671722,-118.01863712072372,-0.2616676892935977,0,True
38.266666666666666,0.11698663234710695,-117.72876915335655,-0.16053144697201396,0,True
38.3,-0.19468247890472415,-117.61178252100945,-0.21203341312335514,0,True
38.333333333333336,-0.42746126651763916,-117.80646499991417,-0.46544918187117074,0,True
38.36666666666667,-0.49688053131103516,-118.23392626643181,-0.8625213984155492,0,True
38.4,-0.3609043955802917,-118.73080679774284,-1.2466091900074694,0,True
38.43333333333333,-0.23467564582824707,-119.09171119332314,-1.4251058326872552,0,True
38.46666666666667,0.37296479940414434,-119.32638683915138,-1.2592035459521775,0,True
38.5,0.7707800269126892,-118.95342203974724,-0.7366046153930076,0,True
38.53333333333333,0.5535249114036561,-118.18264201283455,0.012978246363963308,0,True
38.56666666666667,0.41306531429290766,-117.6291171014309,0.7716516339475793,0,True
38.6,-0.34730648994445795,-117.21605178713799,1.329844904016067,0,True
38.63333333333333,-0.35607767105102534,-117.56335827708244,1.5737145928204794,0,True
38.666666666666664,-0.24703526496887204,-117.91943594813347,1.5183004917337142,0,True
38.7,-0.21531498432159427,-118.16647121310234,1.2752561397617186,0,True
38.733333333333334,-0.22601598501205444,-118.38178619742393,0.9810817208434447,0,True
38.766666666666666,0.0439087152481079,-118.60780218243599,0.7280861504582122,0,True
38.8,-0.20365792512893674,-118.56389346718788,0.5310339581445324,0,True
38.833333333333336,-0.3542599678039551,-118.76755139231682,0.3393703935489019,0,True
38.86666666666667,-0.31912815570831293,-119.12181136012077,0.08196613035978591,0,True
38.9,-0.3395848274230957,-119.44093951582909,-0.2812528922807698,0,True
38.93333333333333,-0.30636852979660034,-119.78052434325218,-0.7247477872085093,0,True
38.96666666666667,-0.2866374254226684,-120.08689287304878,-1.1533649799345453,0,True
39.0,-0.37320601940155035,-120.37353029847145,-1.4310383196471257,0,True
39.03333333333333,-0.04299533367156984,-120.746736317873,-1.4340988749729393,0,True
39.06666666666667,0.2809210419654846,-120.78973165154457,-1.1104683079366364,0,True
39.1,0.7439289093017577,-120.50881060957909,-0.517747452302424,0,True
39.13333333333333,0.2767271399497986,-119.76488170027733,0.18388141671382371,0,True
39.166666666666664,0.026167452335357663,-119.48815456032753,0.7879161594729975,0,True
39.2,-0.2923404574394226,-119.46198710799217,1.1226165205621472,0,True
39.233333333333334,-0.4071452021598816,-119.7543275654316,1.1169596525697556,0,True
39.266666666666666,-0.4022030830383301,-120.16147276759148,0.8208425962922509,0,True
39.3,-0.42967540025711054,-120.5636758506298,0.3744067007378211,0,True
39.333333333333336,-0.29556262493133545,-120.99335125088692,-0.05509714645498487,0,True
39.36666666666667,-0.1328967809677124,-121.28891387581825,-0.3398419357199763,0,True
39.4,-0.12607240676879883,-121.42181065678596,-0.43500092367352244,0,True
39.43333333333333,-0.026676893234252933,-121.54788306355476,-0.38466935157540383,0,True
39.46666666666667,-0.101495623588562,-121.57455995678902,-0.2908537586479356,0,True
39.5,-0.1448914408683777,-121.67605558037758,-0.2601103111662055,0,True
39.53333333333333,-0.3523761034011841,-121.82094702124596,-0.35043902091970164,0,True
39.56666666666667,-0.3451069593429565,-122.17332312464714,-0.5410862322137517,0,True
39.6,-0.3610413074493408,-122.5184300839901,-0.7393716589689139,0,True
39.63333333333333,-0.4322948455810547,-122.87947139143944,-0.8232067207859483,0,True
39.666666666666664,0.5188737511634828,-123.31176623702049,-0.7008621647952054,0,True
39.7,0.283306747674942,-122.79289248585701,-0.35859752567336534,0,True
39.733333333333334,0.01694601774215698,-122.50958573818207,0.12940216082137104,0,True
39.766666666666666,-0.003903746604919433,-122.49263972043991,0.6331715571619966,0,True
39.8,-0.30973243713378906,-122.49654346704483,1.020730106277591,0,True
39.833333333333336,-0.09386086463928221,-122.80627590417862,1.2047592901535822,0,True
39.86666666666667,-0.28343170881271357,-122.9001367688179,1.1648588302938567,0,True
39.9,-0.4118999242782593,-123.18356847763062,0.9442274466519673,0,True
39.93333333333333,-0.4343111515045166,-123.59546840190887,0.628173485627161,0,True
39.96666666666667,-0.5032031536102295,-124.02977955341339,0.3128673112169028,0,True
40.0,-0.18536418676376343,-124.53298270702362,0.07278362713309514,0,True
40.03333333333333,-0.15866875648498535,-124.71834689378738,-0.06293681672943104,0,True
40.06666666666667,-0.2705594301223755,-124.87701565027237,-0.11553143458760146,0,True
40.1,-0.21965920925140378,-125.14757508039474,-0.14034593233657214,0,True
40.13333333333333,-0.28090131282806396,-125.36723428964615,-0.19690892770020701,0,True
40.166666666666664,-0.41879057884216303,-125.64813560247421,-0.31930211874989745,0,True
40.2,-0.3813660144805908,-126.06692618131638,-0.4995620062182392,0,True
40.233333333333334,-0.30668056011199946,-126.44829219579697,-0.6902975009049955,0,True
40.266666666666666,-0.1967881917953491,-126.75497275590897,-0.8240171276024479,0,True
40.3,-0.1531447172164917,-126.95176094770432,-0.8394985074116447,0,True
40.333333333333336,0.1983045041561127,-127.1049056649208,-0.7036890432143452,0,True
40.36666666666667,-0.06732457876205444,-126.9066011607647,-0.4216461257615571,0,True
40.4,-0.2344731092453003,-126.97392573952675,-0.034182036014696396,0,True
40.43333333333333,0.022643864154815674,-127.20839884877205,0.39128099830948254,0,True
40.46666666666667,0.10890457034111023,-127.18575498461723,0.7718760762384314,0,True
40.5,0.012842655181884766,-127.07685041427612,1.0242838747689706,0,True
40.53333333333333,-0.26796615123748774,-127.06400775909424,1.0875361056768011,0,True
40.56666666666667,-0.38151890039443964,-127.33197391033173,0.9491310857698846,0,True
40.6,-0.48926961421966547,-127.71349281072617,0.6596416591214391,0,True
40.63333333333333,-0.49269187450408936,-128.20276242494583,0.3215286178077618,0,True
40.666666666666664,-0.17920875549316406,-128.69545429944992,0.05077630753517572,0,True
40.7,-0.1582118272781372,-128.87466305494308,-0.07363020757616685,0,True
40.733333333333334,0.007265925407409667,-129.03287488222122,-0.04805867240697864,0,True
40.766666666666666,0.06826561689376831,-129.0256089568138,0.0501319097819621,0,True
40.8,-0.3205924034118652,-128.95734333992004,0.09513429397360453,0,True
40.833333333333336,-0.37006485462188726,-129.2779357433319,-0.02955358025707927,0,True
40.86666666666667,-0.40957480669021606,-129.6480005979538,-0.37348445265317487,0,True
40.9,-0.3548325300216675,-130.057575404644,-0.886829726070186,0,True
40.93333333333333,-0.4275759458541871,-130.41240793466568,-1.4269664663572947,0,True
40.96666666666667,-0.4226636886596679,-130.83998388051987,-1.8035612835483983,0,True
41.0,0.05210840702056885,-131.26264756917953,-1.8491649184964285,0,True
41.03333333333333,0.43032696843147283,-131.21053916215897,-1.4911388496390654,0,True
41.06666666666667,0.5912734866142273,-130.7802121937275,-0.7938830911123065,0,True
41.1,0.6074970364570618,-130.18893870711327,0.05297492947977241,0,True
41.13333333333333,-0.07312715053558348,-129.5814416706562,0.8012525139304362,0,True
41.166666666666664,-0.25826823711395264,-129.6545688211918,1.2379537718305214,0,True
41.2,-0.33910429477691645,-129.91283705830574,1.2636834595528996,0,True
41.233333333333334,-0.4673972129821777,-130.25194135308266,0.9229049688400333,0,True
41.266666666666666,-0.45238512754440313,-130.71933856606483,0.37871433819315287,0,True
41.3,-0.29226320981979376,-131.17172369360924,-0.15198447848264343,0,True
41.333333333333336,-0.2878865003585815,-131.46398690342903,-0.47637614717963345,0,True
41.36666666666667,-0.046994149684906,-131.7518734037876,-0.49033727586345277,0,True
41.4,0.3014776110649109,-131.79886755347252,-0.20953521148162865,0,True
41.43333333333333,0.4127267301082611,-131.4973899424076,0.24341717697788742,0,True
41.46666666666667,-0.19501912593841556,-131.08466321229935,0.6922349575997863,0,True
41.5,-0.3325492143630981,-131.27968233823776,0.9796801039480817,0,True
41.53333333333333,-0.34036719799041754,-131.61223155260086,1.0271161878510462,0,True
41.56666666666667,-0.3998564481735229,-131.95259875059128,0.8548225125434584,0,True
41.6,-0.4160336852073669,-132.3524551987648,0.55924706851149,0,True
41.63333333333333,-0.18753039836883545,-132.76848888397217,0.26421534531582547,0,True
41.666666666666664,-0.2364981174468994,-132.956019282341,0.07050217297267843,0,True
41.7,-0.18822312355041504,-133.1925173997879,0.02314142411963807,0,True
41.733333333333334,-0.2598206400871277,-133.38074052333832,0.10451108224443646,0,True
41.766666666666666,-0.03572052717208862,-133.64056116342545,0.25010999648635124,0,True
41.8,-0.11652469635009766,-133.67628169059753,0.3780014099512912,0,True
41.833333333333336,-0.337904691696167,-133.79280638694763,0.4215496790053369,0,True
41.86666666666667,-0.41089493036270136,-134.1307110786438,0.35449945869817384,0,True
41.9,-0.41233330965042114,-134.5416060090065,0.19823269942209715,0,True
41.93333333333333,-0.3838679194450379,-134.95393931865692,0.007412332116113575,0,True
41.96666666666667,-0.0948646068572998,-135.33780723810196,-0.15881607021071914,0,True
42.0,-0.21851766109466553,-135.43267184495926,-0.26497402313083107,0,True
42.03333333333333,-0.25814938545227056,-135.65118950605392,-0.31306184446721114,0,True
42.06666666666667,-0.2763841152191162,-135.9093388915062,-0.33787852472944213,0,True
42.1,-0.38519257307052607,-136.1857230067253,-0.3895856375096493,0,True
42.13333333333333,-0.24988436698913577,-136.57091557979584,-0.512451831989844,0,True
42.166666666666664,-0.24260371923446655,-136.82079994678497,-0.7257083107878668,0,True
42.2,-0.1923675537109375,-137.06340366601944,-1.0090773968413194,0,True
42.233333333333334,-0.28894490003585815,-137.25577121973038,-1.2961286045808016,0,True
42.266666666666666,-0.34228962659835815,-137.54471611976624,-1.481892858506689,0,True
42.3,0.20610287785530088,-137.8870057463646,-1.4508504611930846,0,True
42.333333333333336,-0.03834325075149536,-137.6809028685093,-1.1226718349517564,0,True
42.36666666666667,0.2060348093509674,-137.7192461192608,-0.4998728818733266,0,True
42.4,0.9162687063217162,-137.51321130990982,0.3065636906461011,0,True
42.43333333333333,0.5447050333023071,-136.5969426035881,1.0946605621838903,0,True
42.46666666666667,-0.1338595151901245,-136.0522375702858,1.6367935196864825,0,True
42.5,-0.4540549516677857,-136.18609708547592,1.7701813861847284,0,True
42.53333333333333,-0.45425039529800415,-136.6401520371437,1.4683607013489548,0,True
42.56666666666667,-0.5191646814346312,-137.0944024324417,0.8557495461221264,0,True
42.6,-0.5112211704254149,-137.61356711387634,0.1583708279383023,0,True
42.63333333333333,0.2977355718612671,-138.12478828430176,-0.38490130439350034,0,True
42.666666666666664,-0.056014895439147956,-137.8270527124405,-0.6117876244624464,0,True
42.7,0.038136005401611335,-137.88306760787964,-0.49251027501918254,0,True
42.733333333333334,0.20622617006301877,-137.84493160247803,-0.1356906812248531,0,True
42.766666666666666,0.3820471465587616,-137.638705432415,0.2533342102379892,0,True
42.8,0.012518525123596191,-137.25665828585625,0.4484454975781101,0,True
42.833333333333336,-0.31880217790603643,-137.24413976073265,0.29226379446535505,0,True
42.86666666666667,-0.3820446729660034,-137.5629419386387,-0.23033360638166708,0,True
42.9,-0.4504901766777038,-137.9449866116047,-0.9667124823666128,0,True
42.93333333333333,-0.4340660572052002,-138.3954767882824,-1.6375615785757072,0,True
42.96666666666667,-0.05228900909423829,-138.8295428454876,-1.9374157132707606,0,True
43.0,0.4591336250305175,-138.88183185458183,-1.6605760305384514,0,True
43.03333333333333,1.164935350418091,-138.42269822955132,-0.8005827925140592,0,True
43.06666666666667,1.2430462837219238,-137.25776287913322,0.4267402939518892,0,True
43.1,0.6193492412567139,-136.0147165954113,1.6576713052871668,0,True
43.13333333333333,-0.18024384975433347,-135.3953673541546,2.5250248929437844,0,True
43.166666666666664,-0.3999832868576049,-135.57561120390892,2.8048549429084932,0,True
43.2,-0.5465683937072754,-135.97559449076653,2.4947772968809057,0,True
43.233333333333334,-0.49439585208892817,-136.5221628844738,1.7915682700204283,0,True
43.266666666666666,-0.4214057922363281,-137.01655873656273,0.9876580985127682,0,True
43.3,-0.320679247379303,-137.43796452879906,0.33997977249159067,0,True
43.333333333333336,0.37186506390571594,-137.75864377617836,-0.03090078897250383,0,True
43.36666666666667,-0.0119631290435791,-137.38677871227264,-0.17186012268651596,0,True
43.4,-0.32049047946929937,-137.39874184131622,-0.25068618539238224,0,True
43.43333333333333,-0.40469884872436523,-137.71923232078552,-0.45863435495263616,0,True
43.46666666666667,-0.4105854034423828,-138.1239311695099,-0.9096945516078143,0,True
43.5,-0.48342275619506836,-138.53451657295227,-1.5796191392287742,0,True
43.53333333333333,-0.3915705680847168,-139.01793932914734,-2.3050637895467827,0,True
43.56666666666667,-0.3606452941894531,-139.40950989723206,-2.83943806437915,0,True
43.6,0.4064332842826843,-139.7701551914215,-2.9448709634028316,0,True
43.63333333333333,0.1448797881603241,-139.36372190713882,-2.488290784365385,0,True
43.666666666666664,0.8279040455818176,-139.2188421189785,-1.5058455816426821,0,True
43.7,1.1995235681533811,-138.39093807339668,-0.20766505420415254,0,True
43.733333333333334,0.7244534492492675,-137.1914145052433,1.0857970138931463,0,True
43.766666666666666,-0.1944742202758789,-136.46696105599403,2.0567591357640347,0,True
43.8,-0.45063543319702143,-136.6614352762699,2.505512109920075,0,True
43.833333333333336,-0.5106294155120851,-137.11207070946693,2.413757988123909,0,True
43.86666666666667,-0.5556212663650513,-137.62270012497902,1.927980573174992,0,True
43.9,-0.3321893215179443,-138.17832139134407,1.2788695046696268,0,True
43.93333333333333,-0.17534863948822024,-138.51051071286201,0.6820879486897422,0,True
43.96666666666667,-0.27661657333374023,-138.68585935235023,0.26550144251517166,0,True
44.0,-0.29098200798034674,-138.96247592568398,0.046190007424810504,0,True
44.03333333333333,-0.30340993404388433,-139.25345793366432,-0.04612360210428522,0,True
44.06666666666667,-0.16584229469299316,-139.5568678677082,-0.11943890333554529,0,True
44.1,-0.33747220039367676,-139.7227101624012,-0.2660649991096744,0,True
44.13333333333333,-0.34361553192138666,-140.06018236279488,-0.5219490138704137,0,True
44.166666666666664,-0.3272520303726197,-140.40379789471626,-0.84913616335207,0,True
44.2,-0.4404033422470093,-140.73104992508888,-1.146446622373752,0,True
44.233333333333334,-0.11109286546707152,-141.1714532673359,-1.2863756522525707,0,True
44.266666666666666,-0.07914137840270996,-141.28254613280296,-1.16716549163093,0,True
44.3,0.21431797742843628,-141.36168751120567,-0.7610635701921266,0,True
44.333333333333336,0.44121509790420527,-141.14736953377724,-0.137742513469848,0,True
44.36666666666667,0.19224679470062253,-140.70615443587303,0.5507162193065929,0,True
44.4,-0.0902951955795288,-140.5139076411724,1.120734307446881,0,True
44.43333333333333,-0.3953942060470581,-140.60420283675194,1.423422930755487,0,True
44.46666666666667,-0.41460412740707403,-140.999597042799,1.3966979523423386,0,True
44.5,-0.47312211990356445,-141.41420117020607,1.0816420413784005,0,True
44.53333333333333,-0.5399831533432007,-141.88732329010963,0.5997508449606793,0,True
44.56666666666667,-0.4749515056610107,-142.42730644345284,0.10379882751025972,0,True
44.6,-0.4734566211700439,-142.90225794911385,-0.2780747530000931,0,True
44.63333333333333,-0.41436934471130366,-143.3757145702839,-0.48587168042979156,0,True
44.666666666666664,0.33192095160484303,-143.7900839149952,-0.5434310728767797,0,True
44.7,-0.38874018192291265,-143.45816296339035,-0.5380331981787044,0,True
44.733333333333334,-0.21922093629837033,-143.84690314531326,-0.5691103838318282,0,True
44.766666666666666,-0.38426458835601807,-144.06612408161163,-0.6888086753644895,0,True
44.8,-0.4182264804840088,-144.45038866996765,-0.8659185048511361,0,True
44.833333333333336,-0.4270526170730591,-144.86861515045166,-0.9947018068406879,0,True
44.86666666666667,-0.28859937191009516,-145.29566776752472,-0.9471823765620492,0,True
44.9,0.7090400457382202,-145.58426713943481,-0.6442490374334185,0,True
44.93333333333333,0.23658901453018188,-144.8752270936966,-0.10794931597484772,0,True
44.96666666666667,0.29944694042205816,-144.6386380791664,0.5355170462893285,0,True
45.0,-0.2558239698410034,-144.33919113874435,1.1044694942465894,0,True
45.03333333333333,-0.33443552255630504,-144.59501510858536,1.4340516452737313,0,True
45.06666666666667,-0.413566529750824,-144.92945063114166,1.4348970456796555,0,True
45.1,-0.39906805753707886,-145.3430171608925,1.1160143379869147,0,True
45.13333333333333,-0.4511615037918091,-145.74208521842957,0.5725556928535933,0,True
45.166666666666664,-0.44408804178237915,-146.19324672222137,-0.047453244156222714,0,True
45.2,-0.4079600572586059,-146.63733476400375,-0.5834044965651874,0,True
45.233333333333334,-0.04882240295410156,-147.04529482126236,-0.9014531105992447,0,True
45.266666666666666,-0.2756521701812744,-147.09411722421646,-0.9285205922994154,0,True
45.3,-0.3351398706436157,-147.36976939439774,-0.6758306477518075,0,True
45.333333333333336,0.8114646673202515,-147.70490926504135,-0.24399054143003973,0,True
45.36666666666667,0.33367285132408137,-146.8934445977211,0.20081937885999857,0,True
45.4,-0.1863148212432861,-146.55977174639702,0.484254806164559,0,True
45.43333333333333,-0.5148615837097168,-146.7460865676403,0.4984488907119068,0,True
45.46666666666667,-0.5032802820205688,-147.26094815135002,0.2554909365519125,0,True
45.5,-0.4899520874023438,-147.7642284333706,-0.11471925751503444,0,True
45.53333333333333,-0.07450056076049805,-148.25418052077293,-0.4248058625279674,0,True
45.56666666666667,0.3749749660491943,-148.32868108153343,-0.5171093896870043,0,True
45.6,-0.028060555458068844,-147.95370611548424,-0.33374851085185714,0,True
45.63333333333333,0.22186830639839175,-147.9817666709423,0.061317002480975935,0,True
45.666666666666664,0.12837740778923037,-147.75989836454391,0.5121103808913301,0,True
45.7,-0.04105412960052491,-147.63152095675468,0.8340617581820152,0,True
45.733333333333334,-0.3239809274673462,-147.6725750863552,0.8844835378224006,0,True
45.766666666666666,-0.4465491771697998,-147.99655601382256,0.6152072196726809,0,True
45.8,-0.5247576236724854,-148.44310519099236,0.08991683124927498,0,True
45.833333333333336,-0.4472795724868774,-148.96786281466484,-0.5385787329553651,0,True
45.86666666666667,-0.14162588119506836,-149.41514238715172,-1.0813815401109514,0,True
45.9,-0.17494070529937744,-149.5567682683468,-1.377049663974188,0,True
45.93333333333333,-0.04265916347503663,-149.73170897364616,-1.3442083720197069,0,True
45.96666666666667,0.15510183572769165,-149.7743681371212,-1.0074468986215699,0,True
46.0,0.3962029814720154,-149.6192663013935,-0.48871390177949875,0,True
46.03333333333333,0.454710602760315,-149.2230633199215,0.03584311785127545,0,True
46.06666666666667,-0.23176801204681394,-148.76835271716118,0.4029416553197836,0,True
46.1,-0.4400594234466553,-149.000120729208,0.5280830805147092,0,True
46.13333333333333,-0.46847486495971674,-149.44018015265465,0.43791607994409015,0,True
46.166666666666664,-0.38467937707900995,-149.90865501761436,0.24955111951892103,0,True
46.2,0.06947022676467894,-150.29333439469337,0.10701391323309072,0,True
46.233333333333334,0.15150922536849973,-150.2238641679287,0.11015865689807666,0,True
46.266666666666666,-0.004964947700500488,-150.0723549425602,0.2734290530127773,0,True
46.3,-0.30820208787918085,-150.0773198902607,0.5307521565718765,0,True
46.333333333333336,-0.0777202844619751,-150.38552197813988,0.7752899718210837,0,True
46.36666666666667,-0.22459173202514646,-150.46324226260185,0.9084514207639214,0,True
46.4,-0.4085283279418945,-150.687833994627,0.8767131217218818,0,True
46.43333333333333,-0.448150098323822,-151.0963623225689,0.686328443940395,0,True
46.46666666666667,-0.5327422618865967,-151.54451242089272,0.3948406356793461,0,True
46.5,-0.5179110765457153,-152.0772546827793,0.08477412631230767,0,True
46.53333333333333,-0.1180967092514038,-152.59516575932503,-0.16906210575292885,0,True
46.56666666666667,-0.3060835003852844,-152.71326246857643,-0.324350357503438,0,True
46.6,-0.3070195317268371,-153.01934596896172,-0.37807728172146826,0,True
46.63333333333333,-0.4679104089736939,-153.32636550068855,-0.3561464245707813,0,True
46.666666666666664,-0.31775903701782227,-153.79427590966225,-0.29605491909227843,0,True
46.7,-0.15644127130508423,-154.11203494668007,-0.23281270720825384,0,True
46.733333333333334,-0.2783516049385071,-154.26847621798515,-0.19058890684510366,0,True
46.766666666666666,-0.32618796825408936,-154.54682782292366,-0.17734603684331232,0,True
46.8,-0.40025973320007324,-154.87301579117775,-0.18202698752886914,0,True
46.833333333333336,-0.47072601318359375,-155.27327552437782,-0.1782131472109984,0,True
46.86666666666667,-0.2608557939529419,-155.74400153756142,-0.1370259051360666,0,True
46.9,-0.27051591873168945,-156.00485733151436,-0.04515683995116867,0,True
46.93333333333333,-0.10766553878784181,-156.27537325024605,0.08231777089667743,0,True
46.96666666666667,-0.36686027050018316,-156.3830387890339,0.20386368610076278,0,True
47.0,-0.37331700325012207,-156.74989905953407,0.26918202133801516,0,True
47.03333333333333,-0.4163550138473511,-157.1232160627842,0.2436771442543695,0,True
47.06666666666667,-0.4786505699157715,-157.53957107663155,0.12667709119401327,0,True
47.1,-0.5010145902633667,-158.01822164654732,-0.04579947009327345,0,True
47.13333333333333,-0.5091515779495239,-158.51923623681068,-0.21524858846586128,0,True
47.166666666666664,-0.3255072832107544,-159.0283878147602,-0.3258754482071405,0,True
47.2,-0.13887375593185425,-159.35389509797096,-0.3493951559515569,0,True
47.233333333333334,-0.3474663496017456,-159.49276885390282,-0.29718954739466963,0,True
47.266666666666666,-0.3376493453979493,-159.84023520350456,-0.21359385522334542,0,True
47.3,-0.313762903213501,-160.1778845489025,-0.1542970022278556,0,True
47.333333333333336,-0.39596468210220337,-160.491647452116,-0.16071077755544375,0,True
47.36666666666667,-0.3273070454597473,-160.88761213421822,-0.2408653203483248,0,True
47.4,-0.4064235687255859,-161.21491917967796,-0.3632909794517719,0,True
47.43333333333333,-0.409082293510437,-161.62134274840355,-0.4662929805398807,0,True
47.46666666666667,-0.4075460433959961,-162.030425041914,-0.48102491698698807,0,True
47.5,-0.12054014205932617,-162.43797108530998,-0.36155749046129354,0,True
47.53333333333333,0.13041728734970093,-162.5585112273693,-0.10955566446373861,0,True
47.56666666666667,-0.04764986038208007,-162.4280939400196,0.22014784010259508,0,True
47.6,-0.3344330191612243,-162.4757438004017,0.5386875837241697,0,True
47.63333333333333,-0.38569700717926025,-162.8101768195629,0.757883611727529,0,True
47.666666666666664,-0.3001290559768677,-163.19587382674217,0.8222584634325388,0,True
47.7,-0.35950165987014776,-163.49600288271904,0.7246862140133957,0,True
47.733333333333334,-0.4760036468505859,-163.8555045425892,0.5038446854631978,0,True
47.766666666666666,-0.5139913558959961,-164.33150818943977,0.22880443898920816,0,True
47.8,-0.49623203277587885,-164.84549954533577,-0.02355881971991567,0,True
47.833333333333336,-0.17315912246704102,-165.34173157811165,-0.1928658532768926,0,True
47.86666666666667,-0.25006461143493647,-165.5148907005787,-0.2537995957394146,0,True
47.9,-0.35584956407547,-165.76495531201363,-0.22145988278797282,0,True
47.93333333333333,-0.21070539951324463,-166.1208048760891,-0.14138205724491887,0,True
47.96666666666667,-0.17566055059432983,-166.33151027560234,-0.06901047923557045,0,True
48.0,-0.2881593704223633,-166.50717082619667,-0.046333336924063745,0,True
48.03333333333333,-0.2852451801300049,-166.79533019661903,-0.08315685253377234,0,True
48.06666666666667,-0.3366583585739136,-167.08057537674904,-0.1502444423022763,0,True
48.1,-0.36013770103454584,-167.41723373532295,-0.18959949537698606,0,True
48.13333333333333,-0.36349654197692866,-167.7773714363575,-0.1408521743625191,0,True
48.166666666666664,0.33547243475913996,-168.14086797833443,0.026409343943489122,0,True
48.2,0.03554236888885498,-167.8053955435753,0.2912545372623649,0,True
48.233333333333334,-0.08215641975402832,-167.76985317468643,0.5850394447338682,0,True
48.266666666666666,-0.4236024022102356,-167.85200959444046,0.8192393720183334,0,True
48.3,-0.12491238117218016,-168.2756119966507,0.9207202203168188,0,True
48.333333333333336,-0.3271474838256836,-168.40052437782288,0.8558534866496551,0,True
48.36666666666667,-0.3347291946411132,-168.72767186164856,0.6365971900755978,0,True
48.4,-0.3380584716796875,-169.06240105628967,0.31268925573917794,0,True
48.43333333333333,-0.31354635953903204,-169.40045952796936,-0.043365188701370586,0,True
48.46666666666667,-0.17248058319091794,-169.7140058875084,-0.3538644609019014,0,True
48.5,0.0013393163681030273,-169.8864864706993,-0.5532087447306409,0,True
48.53333333333333,-0.2217622995376587,-169.8851471543312,-0.6032968291471943,0,True
48.56666666666667,-0.08026325702667235,-170.10690945386887,-0.5064005111822276,0,True
48.6,-0.3835452795028686,-170.18717271089554,-0.3139492464595127,0,True
48.63333333333333,0.9980868697166442,-170.5707179903984,-0.12468515531596444,0,True
48.666666666666664,-0.26438426971435547,-169.57263112068176,-0.06090087483782601,0,True
48.7,-0.3616692423820496,-169.83701539039612,-0.2188368036872751,0,True
48.733333333333334,-0.25004965066909784,-170.19868463277817,-0.6113692176167446,0,True
48.766666666666666,-0.31210708618164057,-170.44873428344727,-1.1371491336017439,0,True
48.8,-0.024910211563110355,-170.7608413696289,-1.6005173206313885,0,True
48.833333333333336,-0.11567652225494383,-170.78575158119202,-1.7800537318927436,0,True
48.86666666666667,0.42860263586044306,-170.90142810344696,-1.5210316210809904,0,True
48.9,1.0410656929016113,-170.47282546758652,-0.8148960600548726,0,True
48.93333333333333,0.5050637125968933,-169.4317597746849,0.17216368578668081,0,True
48.96666666666667,1.5043160915374754,-168.926696062088,1.1441074463170846,0,True
49.0,-0.3991248607635498,-167.42237997055054,1.7840360693110462,0,True
49.03333333333333,-0.4536378383636475,-167.8215048313141,1.8831294807918246,0,True
49.06666666666667,-0.3568227887153625,-168.27514266967773,1.429130602077137,0,True
49.1,-0.3160470724105835,-168.6319654583931,0.6119531883542783,0,True
49.13333333333333,0.018719971179962158,-168.94801253080368,-0.25232883214303714,0,True
49.166666666666664,-0.08873879909515381,-168.92929255962372,-0.8409371861282039,0,True
49.2,0.1376763880252838,-169.01803135871887,-0.940319988850082,0,True
49.233333333333334,0.7770319581031798,-168.8803549706936,-0.5219468898401245,0,True
49.266666666666666,0.6837940216064453,-168.1033230125904,0.24544740826597228,0,True
49.3,1.3933167457580566,-167.41952899098396,1.056189190570622,0,True
49.333333333333336,-0.3644334077835083,-166.0262122452259,1.5863128337042858,0,True
49.36666666666667,-0.4689698219299316,-166.39064565300941,1.6260418903899818,0,True
49.4,-0.5131666660308838,-166.85961547493935,1.1648638621610758,0,True
49.43333333333333,-0.24052280187606812,-167.37278214097023,0.38712018403553383,0,True
49.46666666666667,-0.08940261602401735,-167.6133049428463,-0.41565067405829403,0,True
49.5,-0.05295073986053467,-167.70270755887032,-0.9685141951646088,0,True
49.53333333333333,0.29442405700683594,-167.75565829873085,-1.1183297681822801,0,True
49.56666666666667,0.14066118001937866,-167.46123424172401,-0.8836177422496657,0,True
49.6,0.7526081800460814,-167.32057306170464,-0.43670585199702616,0,True
49.63333333333333,0.44993835687637335,-166.56796488165855,-0.027036541842785172,0,True
49.666666666666664,-0.45787549018859863,-166.11802652478218,0.12674271219730823,0,True
49.7,-0.3869333267211914,-166.57590201497078,-0.06707135939789846,0,True
49.733333333333334,-0.37505471706390375,-166.96283534169197,-0.5327925614939009,0,True
49.766666666666666,-0.30505263805389404,-167.33789005875587,-1.0625173429569283,0,True
49.8,0.06353381276130676,-167.64294269680977,-1.4088500967744582,0,True
49.833333333333336,0.48932138085365295,-167.57940888404846,-1.3907473839884823,0,True
49.86666666666667,0.5593293905258179,-167.0900875031948,-0.9663331643799369,0,True
49.9,-0.17839330434799194,-166.530758112669,-0.24554929808906312,0,True
49.93333333333333,0.8816866874694825,-166.70915141701698,0.5563985394065335,0,True
49.96666666666667,0.5066431760787964,-165.8274647295475,1.2023905123651288,0,True
50.0,-0.4701119661331176,-165.3208215534687,1.5235344449041766,0,True
