time_s,raw_network_derivative,integrated_bvp,base,segment_id,derivative_supported
0.0,-0.3719111680984497,0.0,,0,True
0.03333333333333333,0.033877015113830566,-0.3719111680984497,,0,True
0.06666666666666667,-0.008566200733184814,-0.33803415298461914,,0,True
0.1,0.6545015573501587,-0.34660035371780396,,0,True
0.13333333333333333,0.2480776309967041,0.30790120363235474,,0,True
0.16666666666666666,-0.3529464602470398,0.5559788346290588,,0,True
0.2,-0.3910781145095825,0.20303237438201904,,0,True
0.23333333333333334,-0.288438081741333,-0.18804574012756348,,0,True
0.26666666666666666,-0.12803524732589722,-0.4764838218688965,,0,True
0.3,-0.42986011505126953,-0.6045190691947937,,0,True
0.3333333333333333,-0.33419549465179443,-1.0343791842460632,,0,True
0.36666666666666664,-0.3371009826660156,-1.3685746788978577,,0,True
0.4,-0.3125290274620056,-1.7056756615638733,,0,True
0.43333333333333335,-0.28192776441574097,-2.018204689025879,,0,True
0.4666666666666667,-0.11473405361175537,-2.30013245344162,,0,True
0.5,-0.25082576274871826,-2.4148665070533752,,0,True
0.5333333333333333,-0.2895588278770447,-2.6656922698020935,,0,True
0.5666666666666667,-0.24787765741348267,-2.955251097679138,,0,True
0.6,-0.0824022889137268,-3.203128755092621,,0,True
0.6333333333333333,-0.0579797625541687,-3.2855310440063477,,0,True
0.6666666666666666,1.0382436513900757,-3.3435108065605164,,0,True
0.7,1.3836040496826172,-2.3052671551704407,,0,True
0.7333333333333333,0.8760075569152832,-0.9216631054878235,,0,True
0.7666666666666667,-0.19977533817291257,-0.04565554857254028,,0,True
0.8,-0.42472440004348755,-0.24543088674545285,,0,True
0.8333333333333334,-0.357616662979126,-0.6701552867889404,,0,True
0.8666666666666667,-0.43502187728881836,-1.0277719497680664,,0,True
0.9,-0.2938376665115356,-1.4627938270568848,,0,True
0.9333333333333333,-0.37318098545074463,-1.7566314935684204,,0,True
0.9666666666666667,-0.4380265474319458,-2.129812479019165,,0,True
1.0,-0.42828458547592163,-2.567839026451111,,0,True
1.0333333333333334,-0.3905538320541382,-2.9961236119270325,,0,True
1.0666666666666667,-0.3417462110519409,-3.3866774439811707,,0,True
1.1,-0.4078658819198609,-3.7284236550331116,,0,True
1.1333333333333333,-0.27854883670806885,-4.136289536952972,,0,True
1.1666666666666667,-0.11437869071960449,-4.414838373661041,,0,True
1.2,-0.33906543254852295,-4.529217064380646,,0,True
1.2333333333333334,-0.34284543991088867,-4.868282496929169,,0,True
1.2666666666666666,-0.29710352420806885,-5.211127936840057,,0,True
1.3,-0.34460824728012085,-5.508231461048126,,0,True
1.3333333333333333,-0.3440667390823364,-5.852839708328247,,0,True
1.3666666666666667,-0.05484277009963989,-6.1969064474105835,,0,True
1.4,-0.21376895904541016,-6.251749217510223,,0,True
1.4333333333333333,0.5352945923805237,-6.4655181765556335,,0,True
1.4666666666666666,0.683578372001648,-5.93022358417511,,0,True
1.5,0.861855149269104,-5.246645212173462,,0,True
1.5333333333333334,-0.23262488842010498,-4.384790062904358,,0,True
1.5666666666666667,-0.23885583877563474,-4.617414951324463,,0,True
1.6,-0.23123908042907715,-4.856270790100098,0.7838348319856013,0,True
1.6333333333333333,0.0373150110244751,-5.087509870529175,0.837330503523961,0,True
1.6666666666666667,-0.10664129257202148,-5.0501948595047,0.8190804493024368,0,True
1.7,-0.032582998275756836,-5.156836152076721,0.760947640425888,0,True
1.7333333333333334,-0.25755560398101807,-5.189419150352478,0.6809765121271706,0,True
1.7666666666666666,-0.4091862440109253,-5.446974754333496,0.5845482082913551,0,True
1.8,-0.3455759882926941,-5.856160998344421,0.47183465643887385,0,True
1.8333333333333333,-0.3186129927635193,-6.2017369866371155,0.3436786866672488,0,True
1.8666666666666667,-0.40226793289184576,-6.520349979400635,0.2021696890356206,0,True
1.9,-0.3745373487472534,-6.9226179122924805,0.04756729137528295,0,True
1.9333333333333333,-0.2936519384384155,-7.297155261039734,-0.12400824528670226,0,True
1.9666666666666666,-0.2855186462402344,-7.590807199478149,-0.3181922772890982,0,True
2.0,-0.35130083560943604,-7.876325845718384,-0.5342603539065425,0,True
2.033333333333333,-0.3378676772117614,-8.22762668132782,-0.7545969813736315,0,True
2.066666666666667,-0.3296793699264527,-8.565494358539581,-0.9387284933472256,0,True
2.1,-0.22833776473999023,-8.895173728466034,-1.0288761797917763,0,True
2.1333333333333333,-0.08471858501434326,-9.123511493206024,-0.9690987349783903,0,True
2.1666666666666665,0.3411258161067962,-9.208230078220367,-0.7321758073939681,0,True
2.2,0.9048644304275513,-8.867104262113571,-0.34135411440179825,0,True
2.2333333333333334,0.7674667835235597,-7.96223983168602,0.1271945156449921,0,True
2.2666666666666666,0.27339547872543335,-7.19477304816246,0.5672607957837031,0,True
2.3,-0.4163739085197449,-6.921377569437027,0.8818340128546899,0,True
2.3333333333333335,-0.43470048904418945,-7.337751477956772,1.0180922723986885,0,True
2.3666666666666667,-0.2628054618835449,-7.772451967000961,0.979935293143733,0,True
2.4,-0.32921373844146723,-8.035257428884506,0.8150573348671931,0,True
2.433333333333333,-0.26047956943511963,-8.364471167325974,0.5886449014075198,0,True
2.466666666666667,-0.34766054153442383,-8.624950736761093,0.3594530338655895,0,True
2.5,-0.3502548933029175,-8.972611278295517,0.1669520732237639,0,True
2.533333333333333,-0.39661896228790283,-9.322866171598434,0.02895983386628318,0,True
2.566666666666667,-0.27194708585739136,-9.719485133886337,-0.05561075657479143,0,True
2.6,-0.1422973871231079,-9.991432219743729,-0.10328909162136593,0,True
2.6333333333333333,-0.16939449310302734,-10.133729606866837,-0.14234076556525563,0,True
2.6666666666666665,-0.35248613357543945,-10.303124099969864,-0.2066076220323596,0,True
2.7,-0.3741419315338135,-10.655610233545303,-0.32551828122210935,0,True
2.7333333333333334,-0.38237977027893066,-11.029752165079117,-0.5117982066667216,0,True
2.7666666666666666,-0.20601338148117065,-11.412131935358047,-0.7505554430292655,0,True
2.8,-0.2795755863189697,-11.618145316839218,-0.9940826864943874,0,True
2.8333333333333335,-0.35975348949432373,-11.897720903158188,-1.1668662381221395,0,True
2.8666666666666667,-0.2998751401901245,-12.257474392652512,-1.1843086238869698,0,True
2.9,0.47678473591804504,-12.557349532842636,-0.9837998790302235,0,True
2.933333333333333,0.8388656377792358,-12.080564796924591,-0.5575965482336994,0,True
2.966666666666667,1.2477151155471802,-11.241699159145355,0.03026905936416149,0,True
3.0,0.6875108480453491,-9.993984043598175,0.6571859152213706,0,True
3.033333333333333,0.24891313910484317,-9.306473195552826,1.1836274889810658,0,True
3.066666666666667,-0.2434314489364624,-9.057560056447983,1.5040130072900069,0,True
3.1,-0.43166744709014887,-9.300991505384445,1.5813445221306601,0,True
3.1333333333333333,-0.4080827832221985,-9.732658952474594,1.450029201972383,0,True
3.1666666666666665,-0.33485591411590576,-10.140741735696793,1.189539968930301,0,True
3.2,-0.20878607034683225,-10.475597649812698,0.8859198656535604,0,True
3.2333333333333334,-0.008909881114959717,-10.68438372015953,0.6009838608940409,0,True
3.2666666666666666,-0.358885407447815,-10.69329360127449,0.3609660322791648,0,True
3.3,-0.2616796493530273,-11.052179008722305,0.1635795052743774,0,True
3.3333333333333335,-0.3516577482223511,-11.313858658075333,-0.007122958650088776,0,True
3.3666666666666667,-0.30842500925064087,-11.665516406297684,-0.16972090849747984,0,True
3.4,-0.26535803079605097,-11.973941415548325,-0.34307557467776084,0,True
3.433333333333333,-0.28512960672378546,-12.239299446344376,-0.54892405481276,0,True
3.466666666666667,-0.17550814151763916,-12.524429053068161,-0.8112236282035891,0,True
3.5,-0.23947054147720342,-12.6999371945858,-1.1459632700433768,0,True
3.533333333333333,-0.3332762718200683,-12.939407736063004,-1.5422734606753954,0,True
3.566666666666667,-0.21386694908142087,-13.272684007883072,-1.9442698037820492,0,True
3.6,-0.3982610702514648,-13.486550956964493,-2.2479219864030164,0,True
3.6333333333333333,-0.38963067531585693,-13.884812027215958,-2.323960321096801,0,True
3.6666666666666665,1.3299665451049807,-14.274442702531815,-2.0654604990249217,0,True
3.7,1.5962114334106448,-12.944476157426834,-1.441636150955555,0,True
3.7333333333333334,1.5459938049316404,-11.34826472401619,-0.528825519947344,0,True
3.7666666666666666,1.5165106058120728,-9.802270919084549,0.5024705620018929,0,True
3.8,1.145709753036499,-8.285760313272476,1.442067255411808,0,True
3.8333333333333335,0.07498547434806822,-7.140050560235977,2.111620490370762,0,True
3.8666666666666667,-0.28083086013793945,-7.065065085887909,2.421298511251411,0,True
3.9,-0.37468063831329346,-7.345895946025848,2.3880669225744713,0,True
3.933333333333333,-0.31487590074539185,-7.720576584339142,2.111387660271176,0,True
3.966666666666667,-0.36924839019775396,-8.035452485084534,1.7226341791950242,0,True
4.0,-0.13871967792510986,-8.404700875282288,1.334219471874623,0,True
4.033333333333333,-0.197238564491272,-8.543420553207397,1.009237147853892,0,True
4.066666666666666,-0.22313523292541504,-8.74065911769867,0.7585774377127216,0,True
4.1,-0.2925443649291992,-8.963794350624084,0.5588743402866245,0,True
4.133333333333334,-0.2405691146850586,-9.256338715553284,0.3772184107015625,0,True
4.166666666666667,-0.32762432098388666,-9.496907830238342,0.18934651053709728,0,True
4.2,-0.289371132850647,-9.824532151222229,-0.015178368091076474,0,True
4.233333333333333,-0.3957898020744323,-10.113903284072876,-0.2391195273784883,0,True
4.266666666666667,-0.34407365322113037,-10.509693086147308,-0.48767776989346745,0,True
4.3,-0.2409957647323608,-10.853766739368439,-0.773591229174572,0,True
4.333333333333333,-0.35687536001205444,-11.0947625041008,-1.1109970756886363,0,True
4.366666666666666,-0.4359481334686279,-11.451637864112854,-1.498329674403306,0,True
4.4,-0.3147556781768799,-11.887585997581482,-1.8985028955029193,0,True
4.433333333333334,-0.3550448417663575,-12.202341675758362,-2.2296393983486937,0,True
4.466666666666667,-0.07277309894561766,-12.55738651752472,-2.377718335330702,0,True
4.5,0.22196391224861145,-12.630159616470337,-2.2333347821004392,0,True
4.533333333333333,1.0640639066696167,-12.408195704221725,-1.7414734345320737,0,True
4.566666666666666,1.7443342208862305,-11.344131797552109,-0.9416735620304739,0,True
4.6,1.7088924646377563,-9.599797576665878,0.025898406552608173,0,True
4.633333333333334,1.3347249031066895,-7.890905112028122,0.9595672672243324,0,True
4.666666666666667,-0.3503237962722778,-6.5561802089214325,1.6669317237964978,0,True
4.7,-0.3813562393188476,-6.90650400519371,2.0331081581386887,0,True
4.733333333333333,-0.33577287197113037,-7.287860244512558,2.052044354778551,0,True
4.766666666666667,-0.2851794958114624,-7.623633116483688,1.8092318877738067,0,True
4.8,-0.32572376728057856,-7.908812612295151,1.4324906336928722,0,True
4.833333333333333,-0.34094828367233276,-8.23453637957573,1.0401205695042008,0,True
4.866666666666666,-0.4068829417228699,-8.575484663248062,0.708176193988523,0,True
4.9,-0.12827396392822263,-8.982367604970932,0.46283559988902745,0,True
4.933333333333334,-0.18568736314773562,-9.110641568899155,0.2917986471935596,0,True
4.966666666666667,-0.28547561168670654,-9.29632893204689,0.1638902300681922,0,True
5.0,-0.34952908754348755,-9.581804543733597,0.046615273566287814,0,True
5.033333333333333,-0.30991363525390625,-9.931333631277084,-0.08473256925827675,0,True
5.066666666666666,-0.2714641094207763,-10.24124726653099,-0.24667635873767363,0,True
5.1,-0.2632792592048645,-10.512711375951767,-0.450302310477048,0,True
5.133333333333334,-0.27287423610687256,-10.775990635156631,-0.699949686049082,0,True
5.166666666666667,-0.2574988603591919,-11.048864871263504,-0.9847204508218417,0,True
5.2,-0.07110893726348876,-11.306363731622696,-1.2668326012064839,0,True
5.233333333333333,-0.3594424724578857,-11.377472668886185,-1.4765714219907975,0,True
5.266666666666667,-0.3703451156616212,-11.73691514134407,-1.524246082952104,0,True
5.3,-0.22999608516693118,-12.107260257005692,-1.3329435638395524,0,True
5.333333333333333,1.5969960689544678,-12.337256342172623,-0.8820773382414798,0,True
5.366666666666666,1.6056667566299436,-10.740260273218155,-0.23727168141247665,0,True
5.4,0.9131920337677002,-9.134593516588211,0.45876472603507934,0,True
5.433333333333334,-0.18831878900527954,-8.22140148282051,1.0381025528756453,0,True
5.466666666666667,-0.44370937347412115,-8.40972027182579,1.3753579586791618,0,True
5.5,-0.47585248947143555,-8.853429645299911,1.43256001886776,0,True
5.533333333333333,-0.43541246652603155,-9.329282134771347,1.2595147815279228,0,True
5.566666666666666,-0.35588824748992914,-9.764694601297379,0.9571960812566997,0,True
5.6,-0.3145856857299804,-10.120582848787308,0.6295827175134565,0,True
5.633333333333334,-0.22143709659576416,-10.435168534517288,0.34824994514145385,0,True
5.666666666666667,-0.37591713666915894,-10.656605631113052,0.14096515668761894,0,True
5.7,-0.32852518558502203,-11.032522767782211,0.0011119200729340503,0,True
5.733333333333333,-0.24035847187042236,-11.361047953367233,-0.09376953433984099,0,True
5.766666666666667,-0.324945330619812,-11.601406425237656,-0.16628234147964965,0,True
5.8,-0.32539308071136475,-11.926351755857468,-0.23256681583411853,0,True
5.833333333333333,-0.28492128849029547,-12.251744836568832,-0.3040678557054824,0,True
5.866666666666666,-0.17740619182586667,-12.536666125059128,-0.3920877933926124,0,True
5.9,-0.18624430894851685,-12.714072316884995,-0.5082328540537941,0,True
5.933333333333334,-0.14421826601028442,-12.900316625833511,-0.6568957140299195,0,True
5.966666666666667,-0.29298543930053716,-13.044534891843796,-0.8224656425205678,0,True
6.0,-0.39636093378067017,-13.337520331144333,-0.9604095624301114,0,True
6.033333333333333,-0.3487331867218018,-13.733881264925003,-1.0028915888992613,0,True
6.066666666666666,-0.010847806930541992,-14.082614451646805,-0.883288676094734,0,True
6.1,0.46859252452850336,-14.093462258577347,-0.5716298588550935,0,True
6.133333333333334,1.3292016983032227,-13.624869734048843,-0.10184380945354288,0,True
6.166666666666667,0.9274681806564331,-12.29566803574562,0.42905196749652247,0,True
6.2,-0.16507339477539062,-11.368199855089188,0.8954868919941998,0,True
6.233333333333333,-0.5121610164642334,-11.533273249864578,1.1948611993109053,0,True
6.266666666666667,-0.4486843347549439,-12.045434266328812,1.2862000937827451,0,True
6.3,-0.2874155640602111,-12.494118601083755,1.1952362662161535,0,True
6.333333333333333,-0.2549780607223511,-12.781534165143967,0.9889329808769399,0,True
6.366666666666666,-0.2853963375091552,-13.036512225866318,0.739857967563897,0,True
6.4,-0.29508864879608154,-13.321908563375473,0.5006402242127216,0,True
6.433333333333334,-0.42266684770584106,-13.616997212171555,0.29669387134208913,0,True
6.466666666666667,-0.29905152320861816,-14.039664059877396,0.13305033576024844,0,True
6.5,-0.2535622715950013,-14.338715583086014,0.005504485346232397,0,True
6.533333333333333,-0.23965775966644287,-14.592277854681015,-0.0921588473229744,0,True
6.566666666666666,-0.323549211025238,-14.831935614347458,-0.16784452534166494,0,True
6.6,-0.20237040519714355,-15.155484825372696,-0.23560495552698948,0,True
6.633333333333334,-0.16132116317749026,-15.35785523056984,-0.3195278503045959,0,True
6.666666666666667,-0.265352725982666,-15.51917639374733,-0.4510753553455988,0,True
6.7,-0.38304215669631964,-15.784529119729996,-0.656842067980202,0,True
6.733333333333333,-0.35273033380508423,-16.167571276426315,-0.9397693061717469,0,True
6.766666666666667,-0.4151495099067688,-16.5203016102314,-1.2627178823323093,0,True
6.8,-0.38848567008972174,-16.93545112013817,-1.5452256019445283,0,True
6.833333333333333,-0.2954656481742859,-17.32393679022789,-1.6807938103502216,0,True
6.866666666666666,0.27783590555191034,-17.619402438402176,-1.5735964894294916,0,True
6.9,0.6494896411895751,-17.341566532850266,-1.1822980910773384,0,True
6.933333333333334,1.615771293640137,-16.69207689166069,-0.5501194731959596,0,True
6.966666666666667,1.4521882534027102,-15.076305598020554,0.19834879583942197,0,True
7.0,-0.050407230854034424,-13.624117344617844,0.8981742364198718,0,True
7.033333333333333,-0.08627474308013916,-13.674524575471878,1.405092904842703,0,True
7.066666666666666,-0.08672714233398436,-13.760799318552017,1.6449679783436824,0,True
7.1,-0.4609842300415039,-13.847526460886002,1.628287154629571,0,True
7.133333333333334,-0.4281505346298218,-14.308510690927505,1.4289962217877565,0,True
7.166666666666667,-0.312595009803772,-14.736661225557327,1.1446328296623405,0,True
7.2,-0.38318824768066406,-15.0492562353611,0.8582927828047049,0,True
7.233333333333333,-0.23490357398986814,-15.432444483041763,0.6167031853973793,0,True
7.266666666666667,-0.366601824760437,-15.667348057031631,0.42857807602016507,0,True
7.3,-0.3891913294792175,-16.03394988179207,0.27794298287228447,0,True
7.333333333333333,-0.4524365663528443,-16.423141211271286,0.14205856616660809,0,True
7.366666666666666,-0.3713190555572509,-16.87557777762413,0.0044899963037335604,0,True
7.4,-0.34256440401077276,-17.24689683318138,-0.1407695023686456,0,True
7.433333333333334,-0.3104988932609558,-17.589461237192154,-0.29208693183381945,0,True
7.466666666666667,-0.3748369216918945,-17.89996013045311,-0.44465919198686493,0,True
7.5,-0.28668874502182007,-18.274797052145004,-0.5923417634444063,0,True
7.533333333333333,-0.2805759310722351,-18.561485797166824,-0.7258094345678939,0,True
7.566666666666666,-0.21710503101348874,-18.84206172823906,-0.8291957326977396,0,True
7.6,-0.2580882310867309,-19.059166759252548,-0.8790003299411319,0,True
7.633333333333334,-0.2726314067840576,-19.31725499033928,-0.8486755852698522,0,True
7.666666666666667,0.1074962019920349,-19.589886397123337,-0.7195206649377818,0,True
7.7,0.14801257848739624,-19.482390195131302,-0.4938014025894291,0,True
7.733333333333333,0.5243236422538757,-19.334377616643906,-0.20217609186510685,0,True
7.766666666666667,0.2192760407924652,-18.81005397439003,0.1014963283253831,0,True
7.8,-0.17271715402603147,-18.590777933597565,0.35796589671168344,0,True
7.833333333333333,-0.3154764175415039,-18.763495087623596,0.5243398581696466,0,True
7.866666666666666,-0.2998887896537781,-19.0789715051651,0.5876462150678359,0,True
7.9,-0.37524300813674916,-19.378860294818878,0.5633965224804887,0,True
7.933333333333334,-0.33839154243469244,-19.754103302955627,0.48212610340379486,0,True
7.966666666666667,-0.1016550064086914,-20.09249484539032,0.37339150878318444,0,True
8.0,-0.41252624988555914,-20.19414985179901,0.2562825223743722,0,True
8.033333333333333,-0.3587806820869446,-20.60667610168457,0.13980052505644372,0,True
8.066666666666666,-0.38310146331787115,-20.965456783771515,0.02953376736405526,0,True
8.1,-0.3990437984466553,-21.348558247089386,-0.06648889032041605,0,True
8.133333333333333,-0.3647152781486511,-21.74760204553604,-0.1379963026945329,0,True
8.166666666666666,-0.21996188163757324,-22.112317323684692,-0.1788161633884083,0,True
8.2,-0.07789838314056396,-22.332279205322266,-0.19468291463667406,0,True
8.233333333333333,-0.369387149810791,-22.41017758846283,-0.206039017607526,0,True
8.266666666666667,-0.15444320440292358,-22.77956473827362,-0.24172977718533523,0,True
8.3,-0.30354243516922,-22.934007942676544,-0.3247012306918347,0,True
8.333333333333334,-0.3329954147338867,-23.237550377845764,-0.4555704760324191,0,True
8.366666666666667,-0.2725155353546142,-23.57054579257965,-0.6021720380872004,0,True
8.4,-0.3664034605026245,-23.843061327934265,-0.7024451229432433,0,True
8.433333333333334,-0.4257503151893616,-24.20946478843689,-0.6838010589927824,0,True
8.466666666666667,0.38696914911270147,-24.63521510362625,-0.49442594520423405,0,True
8.5,1.1790158748626711,-24.24824595451355,-0.13311158258504832,0,True
8.533333333333333,0.4666650593280793,-23.06923007965088,0.3398464593013674,0,True
8.566666666666666,0.21136426925659177,-22.6025650203228,0.820315327361992,0,True
8.6,-0.02010291814804077,-22.391200751066208,1.19871283986025,0,True
8.633333333333333,-0.2043200135231018,-22.41130366921425,1.3986296768238369,0,True
8.666666666666666,-0.406545341014862,-22.61562368273735,1.3978323801427612,0,True
8.7,-0.4120358228683472,-23.022169023752213,1.2262962104823598,0,True
8.733333333333333,-0.4888581037521363,-23.43420484662056,0.9471210914616686,0,True
8.766666666666667,-0.4078830480575561,-23.923062950372696,0.6311199322473748,0,True
8.8,-0.2733229398727417,-24.330945998430252,0.33513808393634914,0,True
8.833333333333334,-0.3512920141220092,-24.604268938302994,0.0899907126064267,0,True
8.866666666666667,-0.32764309644699097,-24.955560952425003,-0.10124698505248154,0,True
8.9,-0.3276792168617249,-25.283204048871994,-0.25771638877427394,0,True
8.933333333333334,-0.30088007450103765,-25.61088326573372,-0.4120279865458664,0,True
8.966666666666667,-0.32993394136428833,-25.911763340234756,-0.6004100429559575,0,True
9.0,-0.4395121932029724,-26.241697281599045,-0.8516566008507802,0,True
9.033333333333333,-0.3062311410903931,-26.681209474802017,-1.1746410049656886,0,True
9.066666666666666,-0.3084392547607422,-26.98744061589241,-1.546264453394217,0,True
9.1,-0.3616582751274109,-27.295879870653152,-1.9045634116208172,0,True
9.133333333333333,-0.22191667556762695,-27.657538145780563,-2.1534381253900166,0,True
9.166666666666666,0.46921861171722407,-27.87945482134819,-2.1837381549188377,0,True
9.2,0.3849654197692871,-27.410236209630966,-1.9087505316793172,0,True
9.233333333333333,1.316150426864624,-27.02527078986168,-1.3030528316820815,0,True
9.266666666666667,1.6034750938415527,-25.709120362997055,-0.4278434409464848,0,True
9.3,1.5643022060394287,-24.105645269155502,0.5725452339149157,0,True
9.333333333333334,1.1714555025100708,-22.541343063116074,1.507831716638821,0,True
9.366666666666667,0.3469500541687011,-21.369887560606003,2.2011818606453053,0,True
9.4,-0.3469613194465637,-21.0229375064373,2.5459418271810472,0,True
9.433333333333334,-0.4503549933433532,-21.369898825883865,2.5341660084891084,0,True
9.466666666666667,-0.4637336730957031,-21.82025381922722,2.2454181860268485,0,True
9.5,-0.4806324243545533,-22.28398749232292,1.804732327809296,0,True
9.533333333333333,-0.23564893007278442,-22.764619916677475,1.3324909380578633,0,True
9.566666666666666,-0.1735628843307495,-23.00026884675026,0.9088358246995925,0,True
9.6,-0.2884058356285095,-23.17383173108101,0.5637933424762135,0,True
9.633333333333333,-0.3930636644363404,-23.46223756670952,0.28973693871400064,0,True
9.666666666666666,-0.2439239025115967,-23.85530123114586,0.06289937578614802,0,True
9.7,-0.2614617347717285,-24.099225133657455,-0.14005526932808116,0,True
9.733333333333333,-0.28798288106918335,-24.360686868429184,-0.33707772181958,0,True
9.766666666666667,-0.33159101009368896,-24.648669749498367,-0.5449014875515008,0,True
9.8,-0.27445554733276367,-24.980260759592056,-0.784290355070169,0,True
9.833333333333334,-0.08327782154083252,-25.25471630692482,-1.0779273412831163,0,True
9.866666666666667,-0.32794201374053955,-25.337994128465652,-1.4368227993512337,0,True
9.9,-0.32536256313323975,-25.665936142206192,-1.8392230029910237,0,True
9.933333333333334,-0.4094864130020142,-25.99129870533943,-2.2145376310708182,0,True
9.966666666666667,-0.4016413092613221,-26.400785118341446,-2.447592253588437,0,True
10.0,0.3659736216068268,-26.802426427602768,-2.411056642315741,0,True
10.033333333333333,1.0379300117492676,-26.43645280599594,-2.0181128447932397,0,True
10.066666666666666,1.6311001777648924,-25.398522794246674,-1.2719553569804882,0,True
10.1,1.5840837955474854,-23.76742261648178,-0.28464986745729626,0,True
10.133333333333333,1.5314279794692993,-22.183338820934296,0.7495536877237743,0,True
10.166666666666666,0.7851724624633789,-20.651910841464996,1.6184625164638282,0,True
10.2,-0.41738951206207275,-19.866738379001617,2.1657356854808456,0,True
10.233333333333333,-0.4827463626861572,-20.28412789106369,2.340161105085584,0,True
10.266666666666667,-0.4534511566162109,-20.766874253749847,2.1985070248255028,0,True
10.3,-0.29098880290985113,-21.22032541036606,1.8649937583881948,0,True
10.333333333333334,-0.22990632057189944,-21.51131421327591,1.4726128362990596,0,True
10.366666666666667,-0.2204305529594421,-21.74122053384781,1.1163189387667205,0,True
10.4,-0.3423712253570556,-21.96165108680725,0.8352888060438699,0,True
10.433333333333334,-0.3234679698944092,-22.304022312164307,0.6229336261192725,0,True
10.466666666666667,-0.2788832187652588,-22.627490282058716,0.45095903117779135,0,True
10.5,-0.33713632822036743,-22.906373500823975,0.2918948961888105,0,True
10.533333333333333,-0.2556036114692688,-23.243509829044342,0.1305160053614336,0,True
10.566666666666666,-0.21352064609527588,-23.49911344051361,-0.0370926326574483,0,True
10.6,-0.21925342082977292,-23.712634086608887,-0.21171526661003962,0,True
10.633333333333333,-0.3206547498703003,-23.93188750743866,-0.3989478203283991,0,True
10.666666666666666,-0.32564193010330195,-24.25254225730896,-0.6111220625509625,0,True
10.7,-0.3128902912139892,-24.578184187412262,-0.8614414369656493,0,True
10.733333333333333,-0.35615742206573486,-24.89107447862625,-1.1525495828897163,0,True
10.766666666666667,-0.45678555965423584,-25.247231900691986,-1.464613345146441,0,True
10.8,-0.25254309177398676,-25.704017460346222,-1.749366990552547,0,True
10.833333333333334,-0.003170490264892578,-25.95656055212021,-1.9354258416929706,0,True
10.866666666666667,0.09082657098770142,-25.9597310423851,-1.945987793095973,0,True
10.9,0.4284286797046661,-25.8689044713974,-1.7244765513940632,0,True
10.933333333333334,1.199652433395386,-25.440475791692734,-1.2591957823663167,0,True
10.966666666666667,1.438828706741333,-24.240823358297348,-0.5962522889600931,0,True
11.0,0.18092733621597293,-22.801994651556015,0.16686811122051715,0,True
11.033333333333333,1.0900578498840334,-22.621067315340042,0.905682773556384,0,True
11.066666666666666,0.7741323113441466,-21.53100946545601,1.5009810719402612,0,True
11.1,0.006971716880798341,-20.756877154111862,1.868037540331473,0,True
11.133333333333333,-0.34319043159484863,-20.749905437231064,1.9755936752358767,0,True
11.166666666666666,-0.4585456848144532,-21.093095868825912,1.8494186763559504,0,True
11.2,-0.4052973985671997,-21.551641553640366,1.558395837191827,0,True
11.233333333333333,-0.3704720139503479,-21.956938952207565,1.1885797200572592,0,True
11.266666666666667,-0.3144732117652893,-22.327410966157913,0.8166337332760283,0,True
11.3,-0.2591418027877808,-22.641884177923203,0.4926755033296988,0,True
11.333333333333334,-0.37552118301391607,-22.901025980710983,0.2358031634233289,0,True
11.366666666666667,-0.25222039222717285,-23.2765471637249,0.03905202435383264,0,True
11.4,-0.2677918076515198,-23.528767555952072,-0.12195373473855256,0,True
11.433333333333334,-0.34251654148101807,-23.796559363603592,-0.2805409369380351,0,True
11.466666666666667,-0.28985607624053955,-24.13907590508461,-0.4710653155810346,0,True
11.5,-0.38648831844329834,-24.42893198132515,-0.719760381428952,0,True
11.533333333333333,-0.2931870222091675,-24.815420299768448,-1.0332306066746455,0,True
11.566666666666666,-0.4033303260803222,-25.108607321977615,-1.3864543123827227,0,True
11.6,-0.23499649763107297,-25.511937648057938,-1.7159595645802215,0,True
11.633333333333333,-0.24312710762023923,-25.74693414568901,-1.925789409617103,0,True
11.666666666666666,0.08284181356430052,-25.99006125330925,-1.9112956720756888,0,True
11.7,0.35410183668136597,-25.90721943974495,-1.597956883953013,0,True
11.733333333333333,1.2638523578643799,-25.553117603063583,-0.9818462441139318,0,True
11.766666666666667,1.599170684814453,-24.289265245199203,-0.15095406042492643,0,True
11.8,1.6024744510650633,-22.69009456038475,0.7303747995450665,0,True
11.833333333333334,0.04371047019958496,-21.087620109319687,1.474684673155109,0,True
11.866666666666667,-0.40264022350311274,-21.043909639120102,1.9397002514557375,0,True
11.9,-0.3723369240760803,-21.446549862623215,2.076589456288335,0,True
11.933333333333334,-0.5065239667892456,-21.818886786699295,1.9343286388609737,0,True
11.966666666666667,-0.42713379859924316,-22.32541075348854,1.6232865733443678,0,True
12.0,-0.24035108089447021,-22.752544552087784,1.2623014556327725,0,True
12.033333333333333,-0.21564722061157227,-22.992895632982254,0.9362642043077898,0,True
12.066666666666666,-0.3453725576400757,-23.208542853593826,0.6795742543434584,0,True
12.1,-0.34076535701751703,-23.553915411233902,0.4849961022886389,0,True
12.133333333333333,-0.23209619522094727,-23.89468076825142,0.32592814182603985,0,True
12.166666666666666,-0.2852243185043335,-24.126776963472366,0.1775104689209294,0,True
12.2,-0.2586441040039062,-24.4120012819767,0.027122980583185723,0,True
12.233333333333333,-0.3227766752243042,-24.670645385980606,-0.12747216609740467,0,True
12.266666666666667,-0.16675335168838504,-24.99342206120491,-0.2878059534930803,0,True
12.3,-0.13139516115188596,-25.160175412893295,-0.46421117759335295,0,True
12.333333333333334,-0.36965036392211914,-25.29157057404518,-0.6774138741291582,0,True
12.366666666666667,-0.3187170028686523,-25.6612209379673,-0.9488438923291881,0,True
12.4,-0.2378263473510742,-25.979937940835953,-1.2829592624394421,0,True
12.433333333333334,-0.33156752586364746,-26.217764288187027,-1.650078035497149,0,True
12.466666666666667,-0.32091993093490595,-26.549331814050674,-1.9797765762504025,0,True
12.5,-0.17909866571426394,-26.87025174498558,-2.1726300777496443,0,True
12.533333333333333,0.11814355850219728,-27.049350410699844,-2.1313414293257735,0,True
12.566666666666666,1.1714532375335691,-26.931206852197647,-1.801597696089261,0,True
12.6,1.6570955514907835,-25.759753614664078,-1.2033706369385195,0,True
12.633333333333333,1.651382565498352,-24.102658063173294,-0.4333334540222792,0,True
12.666666666666666,0.2810142040252686,-22.451275497674942,0.36663689067404753,0,True
12.7,0.3251178562641144,-22.170261293649673,1.058601675037064,0,True
12.733333333333333,0.4577719569206238,-21.84514343738556,1.5483982908942713,0,True
12.766666666666667,0.48340612649917597,-21.387371480464935,1.7995190010656785,0,True
12.8,-0.09441077709197998,-20.90396535396576,1.8245873887267863,0,True
12.833333333333334,-0.4088265895843506,-20.99837613105774,1.668212455646672,0,True
12.866666666666667,-0.44365906715393066,-21.40720272064209,1.3905574716637505,0,True
12.9,-0.41884171962738037,-21.85086178779602,1.0534164872435365,0,True
12.933333333333334,-0.34073448181152344,-22.2697035074234,0.708805642889088,0,True
12.966666666666667,-0.33569949865341187,-22.610437989234924,0.3917760852304307,0,True
13.0,-0.41717505455017084,-22.946137487888336,0.11916174669415255,0,True
13.033333333333333,-0.2690048813819886,-23.363312542438507,-0.10631373504183907,0,True
13.066666666666666,-0.19497251510620114,-23.632317423820496,-0.28911471432913644,0,True
13.1,-0.18622279167175293,-23.827289938926697,-0.43385458668309823,0,True
13.133333333333333,-0.2111825942993164,-24.01351273059845,-0.5401904921465205,0,True
13.166666666666666,-0.3065024018287658,-24.224695324897766,-0.6014449305303557,0,True
13.2,-0.04605996608734131,-24.531197726726532,-0.6080989041140632,0,True
13.233333333333333,-0.21108347177505488,-24.577257692813873,-0.5550112703713238,0,True
13.266666666666667,0.13336455821990967,-24.788341164588928,-0.4482395603296854,0,True
13.3,0.5454564094543457,-24.65497660636902,-0.306277317933981,0,True
13.333333333333334,-0.4040518999099732,-24.109520196914673,-0.1532197858909642,0,True
13.366666666666667,-0.37741267681121826,-24.513572096824646,-0.007492656700371209,0,True
13.4,-0.13454502820968628,-24.890984773635864,0.12511404762739695,0,True
13.433333333333334,-0.08769035339355467,-25.02552980184555,0.24802143190533305,0,True
13.466666666666667,0.24882259964942932,-25.113220155239105,0.363584929658465,0,True
13.5,-0.242551326751709,-24.864397555589676,0.4657139769809398,0,True
13.533333333333333,-0.3330220580101013,-25.106948882341385,0.5413686738225189,0,True
13.566666666666666,-0.3600120544433594,-25.439970940351486,0.5782477108000595,0,True
13.6,-0.3904145956039428,-25.799982994794846,0.5714919283779085,0,True
13.633333333333333,-0.26023161411285406,-26.19039759039879,0.524936534605452,0,True
13.666666666666666,-0.3854360580444336,-26.450629204511642,0.44786051473510907,0,True
13.7,-0.3700548410415649,-26.836065262556076,0.3508585743618378,0,True
13.733333333333333,-0.32428514957427973,-27.20612010359764,0.2434320617385432,0,True
13.766666666666667,-0.3171564340591431,-27.53040525317192,0.13357396705620453,0,True
13.8,-0.36193084716796875,-27.847561687231064,0.028134115587505577,0,True
13.833333333333334,-0.2737630605697632,-28.209492534399033,-0.06754435122887416,0,True
13.866666666666667,-0.271899938583374,-28.483255594968796,-0.1515664466800784,0,True
13.9,-0.2498981952667236,-28.75515553355217,-0.22838707958321022,0,True
13.933333333333334,-0.2452019453048706,-29.005053728818893,-0.31057053477579066,0,True
13.966666666666667,-0.16182023286819455,-29.250255674123764,-0.41691107636944325,0,True
14.0,-0.3168884515762329,-29.41207590699196,-0.565546320065045,0,True
14.033333333333333,-0.19848585128784182,-29.72896435856819,-0.7631327835368514,0,True
14.066666666666666,-0.16844624280929565,-29.927450209856033,-0.9940415005455788,0,True
14.1,-0.24445462226867676,-30.09589645266533,-1.215348821545149,0,True
14.133333333333333,-0.15944766998291013,-30.340351074934006,-1.3628931609128674,0,True
14.166666666666666,0.17185306549072266,-30.499798744916916,-1.370169579429175,0,True
14.2,0.3799900710582733,-30.327945679426193,-1.195355022101377,0,True
14.233333333333333,1.0320208072662354,-29.94795560836792,-0.844818652412434,0,True
14.266666666666667,1.1618777513504028,-28.915934801101685,-0.3792293784043688,0,True
14.3,1.0498176813125613,-27.75405704975128,0.10519227158073549,0,True
14.333333333333334,-0.167624831199646,-26.70423936843872,0.5138042094620219,0,True
14.366666666666667,-0.2113697528839111,-26.871864199638367,0.7892467325160305,0,True
14.4,0.40331083536148066,-27.083233952522278,0.9249745441986685,0,True
14.433333333333334,0.5122116804122925,-26.679923117160797,0.9514405708658064,0,True
14.466666666666667,-0.2069559693336487,-26.167711436748505,0.9091066445521947,0,True
14.5,0.2421559989452362,-26.374667406082153,0.827662516190748,0,True
14.533333333333333,0.020703911781311035,-26.132511407136917,0.720548638259431,0,True
14.566666666666666,-0.20276081562042234,-26.111807495355606,0.5917847243295872,0,True
14.6,-0.2501748204231262,-26.31456831097603,0.44669140115668704,0,True
14.633333333333333,0.05232018232345581,-26.564743131399155,0.29832059487319157,0,True
14.666666666666666,-0.1679307222366333,-26.5124229490757,0.16559194629258,0,True
14.7,-0.17942094802856448,-26.680353671312332,0.06504572108458857,0,True
14.733333333333333,0.09826207160949707,-26.859774619340897,0.0017608865117202791,0,True
14.766666666666667,0.10007208585739136,-26.7615125477314,-0.03478824803025261,0,True
14.8,-0.018453717231750492,-26.661440461874008,-0.06616662350400813,0,True
14.833333333333334,-0.1911054253578186,-26.67989417910576,-0.11230982008729741,0,True
14.866666666666667,0.0068172216415405265,-26.870999604463577,-0.17694623259907558,0,True
14.9,-0.2013111710548401,-26.864182382822037,-0.23992359069219166,0,True
14.933333333333334,-0.3777769804000855,-27.065493553876877,-0.2626158045544366,0,True
14.966666666666667,-0.3147077560424805,-27.443270534276962,-0.20644123439876644,0,True
15.0,0.6906673908233643,-27.757978290319443,-0.056980091916328975,0,True
15.033333333333333,0.6480046510696412,-27.06731089949608,0.1602523092880374,0,True
15.066666666666666,-0.11910474300384521,-26.419306248426437,0.3852741138773601,0,True
15.1,-0.27940237522125244,-26.538410991430283,0.5503856125463726,0,True
15.133333333333333,-0.3981841206550598,-26.817813366651535,0.6122083710361195,0,True
15.166666666666666,-0.4695945978164673,-27.215997487306595,0.5691993529383619,0,True
15.2,-0.3556792736053466,-27.685592085123062,0.4561228989376393,0,True
15.233333333333333,-0.2966416478157044,-28.04127135872841,0.32184094345722836,0,True
15.266666666666667,-0.08923792839050294,-28.337913006544113,0.20460207260460675,0,True
15.3,-0.3196659088134765,-28.427150934934616,0.11763275239338003,0,True
15.333333333333334,-0.2671740651130676,-28.746816843748093,0.05020858019790092,0,True
15.366666666666667,-0.29546689987182617,-29.01399090886116,-0.019491655730919308,0,True
15.4,-0.3609686493873596,-29.309457808732986,-0.10859565049930621,0,True
15.433333333333334,-0.361539363861084,-29.670426458120346,-0.21929097713831616,0,True
15.466666666666667,-0.31395089626312256,-30.03196582198143,-0.33856618782000397,0,True
15.5,-0.25907063484191895,-30.345916718244553,-0.44726683091753217,0,True
15.533333333333333,-0.27607339620590204,-30.60498735308647,-0.533440899999189,0,True
15.566666666666666,-0.28158390522003174,-30.881060749292374,-0.6028587566567604,0,True
15.6,-0.22251987457275388,-31.162644654512405,-0.6804122760193131,0,True
15.633333333333333,0.04302942752838135,-31.38516452908516,-0.7992779196313786,0,True
15.666666666666666,-0.305493712425232,-31.342135101556778,-0.9796753402768912,0,True
15.7,-0.26830422878265386,-31.64762881398201,-1.2053802039790604,0,True
15.733333333333333,-0.31046891212463373,-31.915933042764664,-1.4114050056528693,0,True
15.766666666666667,-0.2459108829498291,-32.2264019548893,-1.4953807496054021,0,True
15.8,-0.1513924598693848,-32.47231283783913,-1.3552859143798868,0,True
15.833333333333334,1.3351948261260986,-32.62370529770851,-0.9406080424274016,0,True
15.866666666666667,1.5666238069534302,-31.288510471582413,-0.2909277476174615,0,True
15.9,1.5907005071640012,-29.721886664628983,0.4642966823616068,0,True
15.933333333333334,0.04023700952529908,-28.13118615746498,1.151874628293208,0,True
15.966666666666667,-0.18399053812026975,-28.090949147939682,1.6246998745111119,0,True
16.0,-0.34923601150512695,-28.274939686059952,1.8163659287185208,0,True
16.033333333333335,-0.3216636180877686,-28.62417569756508,1.7528268833489162,0,True
16.066666666666666,-0.21704864501953125,-28.945839315652847,1.5221019411836851,0,True
16.1,-0.09975433349609375,-29.16288796067238,1.225794261334153,0,True
16.133333333333333,-0.2040250301361084,-29.262642294168472,0.9396401537822325,0,True
16.166666666666668,-0.3210606575012207,-29.46666732430458,0.6981485560351255,0,True
16.2,-0.30923837423324585,-29.7877279818058,0.5019486950161101,0,True
16.233333333333334,-0.34104824066162104,-30.096966356039047,0.33568280460142463,0,True
16.266666666666666,-0.40094625949859614,-30.43801459670067,0.18328684226988518,0,True
16.3,-0.4642227888107299,-30.838960856199265,0.03379480733798501,0,True
16.333333333333332,0.04972332715988159,-31.303183645009995,-0.12098412888631857,0,True
16.366666666666667,-0.15585207939147946,-31.253460317850113,-0.2898731271826165,0,True
16.4,-0.39109992980957026,-31.409312397241592,-0.47982945628236223,0,True
16.433333333333334,-0.3653541803359985,-31.800412327051163,-0.6869431914527421,0,True
16.466666666666665,-0.4162115454673767,-32.16576650738716,-0.8879430559606853,0,True
16.5,-0.352410614490509,-32.58197805285454,-1.040855579632899,0,True
16.533333333333335,-0.12334048748016357,-32.93438866734505,-1.0978996365711406,0,True
16.566666666666666,0.1197161078453064,-33.05772915482521,-1.0256914663539212,0,True
16.6,0.5827730298042296,-32.938013046979904,-0.8223903419227736,0,True
16.633333333333333,0.6841558814048767,-32.355240017175674,-0.5216524357805057,0,True
16.666666666666668,-0.20775097608566284,-31.671084135770798,-0.18022435151944616,0,True
16.7,-0.0369873046875,-31.87883511185646,0.14347630869319378,0,True
16.733333333333334,0.12623888254165647,-31.91582241654396,0.4065812497804821,0,True
16.766666666666666,-0.004887104034423828,-31.789583534002304,0.5866456560700379,0,True
16.8,-0.09826385974884033,-31.794470638036728,0.6770011944766394,0,True
16.833333333333332,-0.006931006908416747,-31.89273449778557,0.6809741461159653,0,True
16.866666666666667,-0.4479375481605529,-31.899665504693985,0.610139952414037,0,True
16.9,-0.5028514862060546,-32.34760305285454,0.48541142127082365,0,True
16.933333333333334,-0.3795586228370667,-32.85045453906059,0.33601131495551395,0,True
16.966666666666665,-0.26248788833618164,-33.23001316189766,0.1927845477090235,0,True
17.0,-0.31659042835235596,-33.49250105023384,0.0774495913746934,0,True
17.033333333333335,-0.2882798910140991,-33.8090914785862,-0.00658649741322973,0,True
17.066666666666666,-0.1916881799697876,-34.097371369600296,-0.0764404021110026,0,True
17.1,-0.2849075198173523,-34.289059549570084,-0.16263022340057506,0,True
17.133333333333333,-0.32427513599395746,-34.573967069387436,-0.29393336515154145,0,True
17.166666666666668,-0.3843941688537598,-34.89824220538139,-0.47919607263222413,0,True
17.2,-0.2909104228019714,-35.28263637423515,-0.6937321775027472,0,True
17.233333333333334,-0.2367427945137024,-35.573546797037125,-0.8778849041000395,0,True
17.266666666666666,-0.2959913611412049,-35.81028959155083,-0.9518912464217952,0,True
17.3,-0.17555761337280276,-36.10628095269203,-0.8451378838610673,0,True
17.333333333333332,1.0747742652893066,-36.281838566064835,-0.5302443983435652,0,True
17.366666666666667,1.0038719177246092,-35.20706430077553,-0.04570277056648016,0,True
17.4,0.7438196539878844,-34.20319238305092,0.5084592061378476,0,True
17.433333333333334,-0.02743774652481079,-33.459372729063034,1.0043128787044986,0,True
17.466666666666665,0.0007297396659851074,-33.486810475587845,1.332848163773596,0,True
17.5,-0.3173897266387939,-33.48608073592186,1.4400147850871217,0,True
17.533333333333335,-0.2723339796066285,-33.803470462560654,1.3368372471582013,0,True
17.566666666666666,-0.43295758962631226,-34.07580444216728,1.0842846590144113,0,True
17.6,-0.3295225501060486,-34.508762031793594,0.7642572667203977,0,True
17.633333333333333,-0.2569679021835327,-34.83828458189964,0.44997829769667586,0,True
17.666666666666668,-0.36115908622741694,-35.095252484083176,0.18530152612556092,0,True
17.7,-0.2775726318359375,-35.45641157031059,-0.02313774014617282,0,True
17.733333333333334,-0.27818232774734497,-35.73398420214653,-0.20161894249859807,0,True
17.766666666666666,-0.29432868957519526,-36.012166529893875,-0.39573455827276854,0,True
17.8,-0.3265661597251892,-36.30649521946907,-0.650678863946144,0,True
17.833333333333332,-0.3710744380950928,-36.63306137919426,-0.9891917897139973,0,True
17.866666666666667,-0.3618324995040893,-37.00413581728935,-1.3926839142857497,0,True
17.9,-0.26519286632537836,-37.36596831679344,-1.7928264079704856,0,True
17.933333333333334,-0.10343658924102783,-37.63116118311882,-2.080543442292064,0,True
17.966666666666665,-0.22924274206161496,-37.73459777235985,-2.135289954525321,0,True
18.0,0.8882466554641725,-37.96384051442146,-1.8694151294229022,0,True
18.033333333333335,1.4632357358932497,-37.07559385895729,-1.2720900696120043,0,True
18.066666666666666,1.5654712915420532,-35.61235812306404,-0.43060674194966575,0,True
18.1,1.4919642210006712,-34.04688683152199,0.4876630622292053,0,True
18.133333333333333,0.834312915802002,-32.55492261052132,1.2902841590207972,0,True
18.166666666666668,-0.19658863544464109,-31.720609694719315,1.8279548754390273,0,True
18.2,-0.4243693351745605,-31.917198330163956,2.043048505864225,0,True
18.233333333333334,-0.3850145936012268,-32.341567665338516,1.97572472007538,0,True
18.266666666666666,0.0863189995288849,-32.72658225893974,1.7287856382997644,0,True
18.3,0.010336279869079588,-32.64026325941086,1.4148876929138394,0,True
18.333333333333332,-0.27254462242126465,-32.62992697954178,1.115129862041182,0,True
18.366666666666667,-0.29171478748321533,-32.90247160196304,0.8645511173388771,0,True
18.4,-0.27505326271057123,-33.19418638944626,0.6608949811048703,0,True
18.433333333333334,-0.24305444955825806,-33.46923965215683,0.48271480893307106,0,True
18.466666666666665,-0.2873896360397339,-33.71229410171509,0.30471385693195135,0,True
18.5,-0.29996579885482794,-33.99968373775482,0.105604969722295,0,True
18.533333333333335,-0.32381749153137207,-34.29964953660965,-0.12987316722121198,0,True
18.566666666666666,-0.26882320642471313,-34.62346702814102,-0.4102146704928864,0,True
18.6,-0.3687984347343445,-34.892290234565735,-0.7336719299179819,0,True
18.633333333333333,-0.199518084526062,-35.26108866930008,-1.0814358520125982,0,True
18.666666666666668,-0.3604071140289307,-35.46060675382614,-1.4113830260818598,0,True
18.7,-0.23567241430282593,-35.82101386785507,-1.6592556175369586,0,True
18.733333333333334,-0.2529181241989135,-36.0566862821579,-1.7529738115378513,0,True
18.766666666666666,0.04968035221099853,-36.30960440635681,-1.6394207440128767,0,True
18.8,1.3481869697570803,-36.25992405414581,-1.3133142293094107,0,True
18.833333333333332,1.0085210800170898,-34.91173708438873,-0.8306687924516719,0,True
18.866666666666667,0.987896203994751,-33.90321600437164,-0.293223946629586,0,True
18.9,0.06901246309280396,-32.91531980037689,0.19255272515783797,0,True
18.933333333333334,-0.10440540313720703,-32.84630733728409,0.5591006710089145,0,True
18.966666666666665,-0.3802429437637329,-32.950712740421295,0.7972692125933959,0,True
19.0,0.31443631649017334,-33.33095568418503,0.9411325466247344,0,True
19.033333333333335,0.8923493623733522,-33.016519367694855,1.0317755578405332,0,True
19.066666666666666,0.03359055519104003,-32.1241700053215,1.087195191094099,0,True
19.1,-0.23713183403015134,-32.09057945013046,1.097500736637708,0,True
19.133333333333333,-0.35290032625198364,-32.327711284160614,1.0425765231851207,0,True
19.166666666666668,-0.40427923202514643,-32.6806116104126,0.9134837215459173,0,True
19.2,-0.3558947443962097,-33.084890842437744,0.721082998608837,0,True
19.233333333333334,-0.37199610471725464,-33.440785586833954,0.48867879953388654,0,True
19.266666666666666,-0.3756680488586425,-33.81278169155121,0.23678675952552827,0,True
19.3,-0.29776644706726074,-34.18844974040985,-0.028349786600596227,0,True
19.333333333333332,-0.2798486948013306,-34.48621618747711,-0.3140843970653694,0,True
19.366666666666667,-0.2798077464103698,-34.76606488227844,-0.6272136601579733,0,True
19.4,-0.31750476360321045,-35.04587262868881,-0.9531087749320006,0,True
19.433333333333334,-0.3540562391281128,-35.36337739229202,-1.2407752649387958,0,True
19.466666666666665,-0.3684324026107788,-35.717433631420135,-1.4066950501339373,0,True
19.5,-0.1130632758140564,-36.085866034030914,-1.3628130267122547,0,True
19.533333333333335,0.9111040234565735,-36.19892930984497,-1.060350159918654,0,True
19.566666666666666,1.1617538928985593,-35.2878252863884,-0.5276317398911056,0,True
19.6,1.564663529396057,-34.12607139348984,0.12309363808787378,0,True
19.633333333333333,0.359371542930603,-32.56140786409378,0.7309420239311427,0,True
19.666666666666668,-0.4097209572792053,-32.20203632116318,1.1494329596014332,0,True
19.7,-0.3785692453384399,-32.61175727844238,1.3037376862283792,0,True
19.733333333333334,-0.3669108152389526,-32.99032652378082,1.2116749758092231,0,True
19.766666666666666,-0.3210194706916809,-33.357237339019775,0.9614340285814088,0,True
19.8,-0.35720509290695185,-33.678256809711456,0.6636213367909082,0,True
19.833333333333332,0.19827455282211304,-34.03546190261841,0.40434879706611315,0,True
19.866666666666667,-0.26693761348724365,-33.837187349796295,0.21925692652036655,0,True
19.9,-0.3222318291664123,-34.10412496328354,0.09429352725218927,0,True
19.933333333333334,-0.29042851924896246,-34.42635679244995,-0.014196782248274083,0,True
19.966666666666665,-0.4204186201095581,-34.716785311698914,-0.153735099867281,0,True
20.0,-0.2744252681732178,-35.13720393180847,-0.355149286419748,0,True
20.033333333333335,-0.2942467331886292,-35.41162919998169,-0.6210192937330306,0,True
20.066666666666666,-0.3408135771751404,-35.70587593317032,-0.9223155100926749,0,True
20.1,-0.28479886054992676,-36.04668951034546,-1.2021322517590156,0,True
20.133333333333333,-0.16433215141296384,-36.331488370895386,-1.3870595728371338,0,True
20.166666666666668,0.0019999742507934575,-36.49582052230835,-1.4066283394682069,0,True
20.2,0.4206142425537109,-36.493820548057556,-1.217777300882361,0,True
20.233333333333334,0.5773822069168091,-36.073206305503845,-0.8263025744337379,0,True
20.266666666666666,0.8643555641174318,-35.495824098587036,-0.2946344531874188,0,True
20.3,1.313349723815918,-34.631468534469604,0.27174288589458956,0,True
20.333333333333332,-0.21041178703308105,-33.31811881065369,0.7578088705879967,0,True
20.366666666666667,-0.23534464836120603,-33.52853059768677,1.079020076919491,0,True
20.4,-0.24408370256423947,-33.763875246047974,1.207557196224543,0,True
20.433333333333334,-0.2473268508911133,-34.00795894861221,1.171415334427472,0,True
20.466666666666665,-0.279751181602478,-34.255285799503326,1.0302390688840037,0,True
20.5,-0.2466546297073364,-34.535036981105804,0.8446341889732494,0,True
20.533333333333335,-0.15232253074645996,-34.78169161081314,0.6551898770973604,0,True
20.566666666666666,-0.46642923355102534,-34.9340141415596,0.47801485223875373,0,True
20.6,-0.48635745048522944,-35.400443375110626,0.3132386173031147,0,True
20.633333333333333,-0.48898649215698237,-35.886800825595856,0.15695399235136875,0,True
20.666666666666668,-0.35539609193801874,-36.37578731775284,0.008067353007673918,0,True
20.7,-0.2968254089355469,-36.73118340969086,-0.13211660047625426,0,True
20.733333333333334,-0.3095128536224365,-37.028008818626404,-0.2635457306412648,0,True
20.766666666666666,-0.3164181709289551,-37.33752167224884,-0.38874911548117624,0,True
20.8,-0.3037862777709961,-37.653939843177795,-0.5092793352846463,0,True
20.833333333333332,-0.22830736637115479,-37.95772612094879,-0.6189748304406698,0,True
20.866666666666667,-0.1467357873916626,-38.186033487319946,-0.6984815231867413,0,True
20.9,-0.2571185231208801,-38.33276927471161,-0.7158146951865666,0,True
20.933333333333334,-0.14773064851760867,-38.58988779783249,-0.6358806453837084,0,True
20.966666666666665,-0.19297635555267334,-38.7376184463501,-0.4377860768206437,0,True
21.0,0.9140422344207765,-38.93059480190277,-0.1328411442654502,0,True
21.033333333333335,0.7756304144859315,-38.016552567481995,0.22845341468755687,0,True
21.066666666666666,-0.2562999725341797,-37.24092215299606,0.5692987262499184,0,True
21.1,-0.19222104549407956,-37.49722212553024,0.8155168241429458,0,True
21.133333333333333,-0.3632631301879882,-37.68944317102432,0.9236703545141531,0,True
21.166666666666668,-0.34561133384704584,-38.05270630121231,0.8920792865496785,0,True
21.2,-0.352591872215271,-38.39831763505936,0.7518289721763458,0,True
21.233333333333334,-0.21793735027313232,-38.75090950727463,0.547376888683089,0,True
21.266666666666666,-0.2930364608764649,-38.96884685754776,0.3191394523636251,0,True
21.3,-0.4463090300559997,-39.261883318424225,0.09514188387766079,0,True
21.333333333333332,-0.3978834748268127,-39.708192348480225,-0.10897563662802831,0,True
21.366666666666667,-0.4228985905647277,-40.10607582330704,-0.28718232783208236,0,True
21.4,-0.2718089818954468,-40.528974413871765,-0.442208949253827,0,True
21.433333333333334,-0.2778609991073608,-40.80078339576721,-0.5865122440128502,0,True
21.466666666666665,-0.13794308900833127,-41.07864439487457,-0.7408784860138852,0,True
21.5,-0.38265264034271246,-41.216587483882904,-0.9265101074956507,0,True
21.533333333333335,-0.08345288038253784,-41.59924012422562,-1.1505197771242979,0,True
21.566666666666666,-0.18717807531356812,-41.682693004608154,-1.3902190156422207,0,True
21.6,-0.2046576738357544,-41.86987107992172,-1.5851910153409798,0,True
21.633333333333333,-0.13126444816589355,-42.07452875375748,-1.6458381222456764,0,True
21.666666666666668,0.3957551419734955,-42.20579320192337,-1.4816608033794703,0,True
21.7,0.7835207581520082,-41.810038059949875,-1.0420790709602772,0,True
21.733333333333334,1.4575419425964355,-41.02651730179787,-0.3517715714699189,0,True
21.766666666666666,1.4603346586227417,-39.56897535920143,0.48042878158259855,0,True
21.8,1.340819835662842,-38.10864070057869,1.2899674287751777,0,True
21.833333333333332,-0.19908261299133298,-36.76782086491585,1.9134620657327766,0,True
21.866666666666667,-0.3103604316711426,-36.96690347790718,2.2470532774884844,0,True
21.9,-0.4284876585006714,-37.27726390957832,2.276239193963077,0,True
21.933333333333334,-0.3137089014053345,-37.705751568078995,2.0642416740848097,0,True
21.966666666666665,-0.22593003511428833,-38.01946046948433,1.7110596185329578,0,True
22.0,-0.30533152818679804,-38.24539050459862,1.3093495666598605,0,True
22.033333333333335,-0.46584784984588623,-38.550722032785416,0.9184414940184321,0,True
22.066666666666666,-0.43661230802536005,-39.0165698826313,0.5621823808472185,0,True
22.1,-0.43056774139404297,-39.45318219065666,0.24249186291588953,0,True
22.133333333333333,-0.3183977007865906,-39.883749932050705,-0.04436552663616398,0,True
22.166666666666668,-0.41741943359375,-40.202147632837296,-0.2984244448194554,0,True
22.2,-0.26596397161483765,-40.619567066431046,-0.5164618307321618,0,True
22.233333333333334,-0.20728033781051636,-40.88553103804588,-0.6989924892557604,0,True
22.266666666666666,-0.04194515943527222,-41.0928113758564,-0.8569071046538335,0,True
22.3,-0.11445069313049316,-41.13475653529167,-1.0108634503432394,0,True
22.333333333333332,-0.1978874206542969,-41.249207228422165,-1.180852041263338,0,True
22.366666666666667,-0.2761808037757873,-41.44709464907646,-1.3701471971394903,0,True
22.4,-0.20356857776641846,-41.72327545285225,-1.5529037581707288,0,True
22.433333333333334,-0.31961750984191895,-41.92684403061867,-1.6743672689594384,0,True
22.466666666666665,0.4250432550907135,-42.24646154046059,-1.666819184649067,0,True
22.5,0.593110978603363,-41.82141828536987,-1.4759860291755815,0,True
22.533333333333335,0.36032792925834656,-41.22830730676651,-1.086474180134187,0,True
22.566666666666666,0.95956951379776,-40.86797937750816,-0.5348514085233852,0,True
22.6,1.1316065788269043,-39.9084098637104,0.09559590567199275,0,True
22.633333333333333,0.6599817872047425,-38.7768032848835,0.6977970464697749,0,True
22.666666666666668,-0.014005184173583984,-38.11682149767876,1.1740538213674518,0,True
22.7,-0.12831926345825195,-38.13082668185234,1.4654762294071781,0,True
22.733333333333334,-0.18177521228790283,-38.25914594531059,1.563732428935212,0,True
22.766666666666666,-0.1727008819580078,-38.440921157598495,1.5012702707967307,0,True
22.8,-0.2394938468933105,-38.6136220395565,1.3289974229939736,0,True
22.833333333333332,-0.3881009817123413,-38.853115886449814,1.0953316746939408,0,True
22.866666666666667,-0.42912423610687256,-39.241216868162155,0.8355802704013611,0,True
22.9,-0.475121259689331,-39.67034110426903,0.5719762720936571,0,True
22.933333333333334,-0.4612430334091187,-40.14546236395836,0.31893780554184104,0,True
22.966666666666665,-0.4511706829071045,-40.60670539736748,0.08744805380590198,0,True
23.0,-0.4262840747833252,-41.05787608027458,-0.11461592047519054,0,True
23.033333333333335,-0.30743217468261724,-41.48416015505791,-0.285431387553224,0,True
23.066666666666666,-0.2987271547317505,-41.791592329740524,-0.4318059710994627,0,True
23.1,-0.2612766623497009,-42.090319484472275,-0.5673057937268214,0,True
23.133333333333333,-0.2851172089576721,-42.351596146821976,-0.7042806919471593,0,True
23.166666666666668,-0.28018659353256226,-42.63671335577965,-0.8422529306617281,0,True
23.2,-0.14037674665451047,-42.91689994931221,-0.9586229892186188,0,True
23.233333333333334,-0.19226455688476562,-43.05727669596672,-1.0084247530095891,0,True
23.266666666666666,-0.15170109272003174,-43.249541252851486,-0.9372205519576013,0,True
23.3,-0.2720355391502381,-43.40124234557152,-0.7056041725552569,0,True
23.333333333333332,1.1668245792388916,-43.673277884721756,-0.31619737004235005,0,True
23.366666666666667,1.0314593315124512,-42.506453305482864,0.172428038081767,0,True
23.4,0.28130251169204706,-41.47499397397041,0.6586009113109972,0,True
23.433333333333334,-0.19141697883605957,-41.193691462278366,1.0357248082526203,0,True
23.466666666666665,-0.45252144336700445,-41.385108441114426,1.2352376532887215,0,True
23.5,-0.43099832534790034,-41.83762988448143,1.249131726264533,0,True
23.533333333333335,-0.30673032999038696,-42.26862820982933,1.1214923513528656,0,True
23.566666666666666,-0.15313291549682614,-42.57535853981972,0.9186105084978572,0,True
23.6,-0.361803650856018,-42.728491455316544,0.6972862961004066,0,True
23.633333333333333,-0.24057710170745847,-43.09029510617256,0.48710485327895153,0,True
23.666666666666668,-0.33661842346191406,-43.33087220788002,0.29097686614201745,0,True
23.7,-0.32050389051437383,-43.667490631341934,0.09794207350843491,0,True
23.733333333333334,-0.4295182228088379,-43.98799452185631,-0.1019836636076622,0,True
23.766666666666666,-0.4253603219985962,-44.417512744665146,-0.3094928547538878,0,True
23.8,-0.31341636180877686,-44.84287306666374,-0.5174650424064707,0,True
23.833333333333332,-0.1418127417564392,-45.15628942847252,-0.7190527826997801,0,True
23.866666666666667,-0.23745715618133542,-45.29810217022896,-0.9148207742148144,0,True
23.9,-0.1375030279159546,-45.535559326410294,-1.1119352065531287,0,True
23.933333333333334,0.05569392442703247,-45.67306235432625,-1.3137426401421963,0,True
23.966666666666665,-0.08162742853164673,-45.617368429899216,-1.504842021126702,0,True
24.0,-0.30715358257293707,-45.69899585843086,-1.6413969613525707,0,True
24.033333333333335,0.06407359242439271,-46.0061494410038,-1.6565972625615069,0,True
24.066666666666666,0.2714688181877136,-45.94207584857941,-1.4847449379210333,0,True
24.1,1.1597940921783445,-45.67060703039169,-1.095393157389615,0,True
24.133333333333333,1.4661753177642822,-44.51081293821335,-0.518817307801599,0,True
24.166666666666668,1.1077752113342285,-43.044637620449066,0.15470200983182747,0,True
24.2,0.3760153651237488,-41.93686240911484,0.80456766129782,0,True
24.233333333333334,0.17455482482910156,-41.56084704399109,1.3225456450507547,0,True
24.266666666666666,-0.1973766088485718,-41.38629221916199,1.6447878635335977,0,True
24.3,0.70063316822052,-41.58366882801056,1.7594370282680483,0,True
24.333333333333332,-0.4115856885910034,-40.88303565979004,1.6938866263517616,0,True
24.366666666666667,-0.36987078189849854,-41.29462134838104,1.4956464464922294,0,True
24.4,-0.4673998355865478,-41.66449213027954,1.2170147190558658,0,True
24.433333333333334,-0.41899120807647705,-42.13189196586609,0.905308606589003,0,True
24.466666666666665,-0.3243865966796875,-42.550883173942566,0.5971668452166591,0,True
24.5,-0.3389723896980286,-42.87526977062225,0.31652912206443584,0,True
24.533333333333335,-0.4255505204200744,-43.21424216032028,0.07598604040114357,0,True
24.566666666666666,-0.3635685443878174,-43.639792680740356,-0.12031443856680082,0,True
24.6,-0.31459707021713257,-44.003361225128174,-0.2745112772038765,0,True
24.633333333333333,-0.18821835517883304,-44.317958295345306,-0.39420339852058195,0,True
24.666666666666668,-0.26443493366241455,-44.50617665052414,-0.491168482209433,0,True
24.7,-0.2530625462532044,-44.770611584186554,-0.5774402821564568,0,True
24.733333333333334,-0.20464652776718137,-45.02367413043976,-0.6586800382774427,0,True
24.766666666666666,-0.1566835641860962,-45.22832065820694,-0.7275265325294697,0,True
24.8,-0.22226619720458984,-45.385004222393036,-0.7610249905578511,0,True
24.833333333333332,-0.27123898267745966,-45.607270419597626,-0.7257488774266796,0,True
24.866666666666667,-0.17403537034988403,-45.878509402275085,-0.5916092888459157,0,True
24.9,0.4142056703567505,-46.05254477262497,-0.350323116091055,0,True
24.933333333333334,0.3034148216247559,-45.63833910226822,-0.02901261902149841,0,True
24.966666666666665,0.671537458896637,-45.33492428064346,0.31149655177793645,0,True
25.0,-0.46448087692260737,-44.663386821746826,0.5967310829680692,0,True
25.033333333333335,-0.3239578604698181,-45.127867698669434,0.7678858227109137,0,True
25.066666666666666,-0.3786149621009826,-45.45182555913925,0.8040904161239344,0,True
25.1,-0.4381968975067139,-45.830440521240234,0.7259035597389283,0,True
25.133333333333333,-0.3607172966003418,-46.26863741874695,0.5806837011443168,0,True
25.166666666666668,-0.409202754497528,-46.62935471534729,0.4199707799864945,0,True
25.2,-0.2115139961242676,-47.03855746984482,0.28029846382357054,0,True
25.233333333333334,-0.31815445423126215,-47.250071465969086,0.17457175634783395,0,True
25.266666666666666,-0.10449278354644774,-47.56822592020035,0.09528065648426474,0,True
25.3,-0.30248403549194336,-47.672718703746796,0.025637892790216787,0,True
25.333333333333332,-0.3152784705162049,-47.97520273923874,-0.04831067579899211,0,True
25.366666666666667,-0.34409749507904047,-48.290481209754944,-0.1314225070311749,0,True
25.4,-0.30373919010162354,-48.634578704833984,-0.2222581148999667,0,True
25.433333333333334,-0.2350081205368042,-48.93831789493561,-0.3223476772555365,0,True
25.466666666666665,-0.24834799766540525,-49.17332601547241,-0.44451951133754497,0,True
25.5,-0.22133970260620117,-49.42167401313782,-0.6123446954489986,0,True
25.533333333333335,-0.3028113842010498,-49.64301371574402,-0.8472528827558173,0,True
25.566666666666666,-0.31817495822906494,-49.94582509994507,-1.1473056018476866,0,True
25.6,-0.3180748224258422,-50.26400005817413,-1.4683113991670886,0,True
25.633333333333333,-0.32490515708923345,-50.582074880599976,-1.7202861040025816,0,True
25.666666666666668,-0.08130210638046266,-50.90698003768921,-1.7879432395103674,0,True
25.7,0.5479919910430908,-50.98828214406967,-1.573153026130082,0,True
25.733333333333334,1.1379201412200926,-50.44029015302658,-1.0437977419541125,0,True
25.766666666666666,1.654798984527588,-49.30237001180649,-0.2645741648840067,0,True
25.8,1.581512212753296,-47.6475710272789,0.6110447866575398,0,True
25.833333333333332,0.6042565107345581,-46.066058814525604,1.390530576672591,0,True
25.866666666666667,-0.2774575352668762,-45.461802303791046,1.91283552195244,0,True
25.9,-0.38659703731536854,-45.73925983905792,2.104895106773309,0,True
25.933333333333334,-0.3581408262252808,-46.12585687637329,1.9966000488281888,0,True
25.966666666666665,-0.4486443996429443,-46.48399770259857,1.6913543482315696,0,True
26.0,-0.2680703401565552,-46.932642102241516,1.312989011317684,0,True
26.033333333333335,-0.21290075778961184,-47.20071244239807,0.9573857022264209,0,True
26.066666666666666,-0.12550568580627441,-47.41361320018768,0.6685713872740208,0,True
26.1,-0.3786554336547852,-47.53911888599396,0.44339382685817536,0,True
26.133333333333333,-0.3216589093208313,-47.91777431964874,0.25490313661968156,0,True
26.166666666666668,-0.3792135119438172,-48.239433228969574,0.07796475446041527,0,True
26.2,-0.4409912824630737,-48.61864674091339,-0.09658225759171185,0,True
26.233333333333334,-0.2739928364753723,-49.059638023376465,-0.2636892408331499,0,True
26.266666666666666,-0.23066288232803348,-49.33363085985184,-0.41643841369475854,0,True
26.3,-0.0469089150428772,-49.56429374217987,-0.5580503498944507,0,True
26.333333333333332,-0.2696486711502075,-49.61120265722275,-0.703691565618669,0,True
26.366666666666667,-0.28345274925231934,-49.880851328372955,-0.8692870514787842,0,True
26.4,-0.3571450114250183,-50.164304077625275,-1.053570964444805,0,True
26.433333333333334,-0.27308189868926996,-50.52144908905029,-1.224948581109585,0,True
26.466666666666665,-0.2716866135597229,-50.79453098773956,-1.3232719502674237,0,True
26.5,-0.011798858642578125,-51.066217601299286,-1.2795198660996514,0,True
26.533333333333335,0.2040550410747528,-51.078016459941864,-1.0470651201250833,0,True
26.566666666666666,0.7907359600067138,-50.87396141886711,-0.6304288769492195,0,True
26.6,1.5304125547409055,-50.0832254588604,-0.0951058881695771,0,True
26.633333333333333,0.04127705097198487,-48.55281290411949,0.4510760093687982,0,True
26.666666666666668,-0.18070554733276364,-48.51153585314751,0.8985996605941929,0,True
26.7,-0.14412522315979004,-48.69224140048027,1.176892695806123,0,True
26.733333333333334,-0.25931918621063227,-48.83636662364006,1.2725693341748818,0,True
26.766666666666666,-0.22780078649520874,-49.09568580985069,1.2194891086958852,0,True
26.8,-0.23909634351730344,-49.3234865963459,1.0725596212144592,0,True
26.833333333333332,-0.2890966534614563,-49.562582939863205,0.882476054749177,0,True
26.866666666666667,-0.3089092373847961,-49.85167959332466,0.6824871752402806,0,True
26.9,-0.4248775243759156,-50.16058883070946,0.4885199309325294,0,True
26.933333333333334,-0.3908116817474366,-50.58546635508537,0.30662030751502467,0,True
26.966666666666665,-0.2998947501182556,-50.97627803683281,0.13966723124096667,0,True
27.0,-0.3637767434120178,-51.276172786951065,-0.011545333082170808,0,True
27.033333333333335,-0.2789601087570191,-51.63994953036308,-0.15243667174360573,0,True
27.066666666666666,-0.3624172806739807,-51.9189096391201,-0.29945301993440043,0,True
27.1,-0.3962138891220092,-52.28132691979408,-0.47986986716554547,0,True
27.133333333333333,-0.28957557678222656,-52.67754080891609,-0.7226741876051367,0,True
27.166666666666668,-0.32408797740936285,-52.96711638569832,-1.0407516980904077,0,True
27.2,-0.34786498546600336,-53.29120436310768,-1.4101363171431252,0,True
27.233333333333334,-0.3924486637115479,-53.639069348573685,-1.757235035516081,0,True
27.266666666666666,-0.31224155426025396,-54.03151801228523,-1.9663719503484434,0,True
27.3,-0.39829313755035395,-54.34375956654549,-1.9140008262045012,0,True
27.333333333333332,1.419398546218872,-54.74205270409584,-1.5220280672759874,0,True
27.366666666666667,1.672985434532165,-53.32265415787697,-0.8065684327097892,0,True
27.4,1.549316167831421,-51.6496687233448,0.10770434276734292,0,True
27.433333333333334,1.1005842685699463,-50.10035255551338,1.0230509450902012,0,True
27.466666666666665,0.0780353546142578,-48.999768286943436,1.740265654285906,0,True
27.5,-0.41387897729873663,-48.92173293232918,2.130310177972979,0,True
27.533333333333335,-0.37917470932006836,-49.335611909627914,2.1709205490209578,0,True
27.566666666666666,-0.5317950248718261,-49.71478661894798,1.9350296321293214,0,True
27.6,-0.29808622598648077,-50.24658164381981,1.5444688544402314,0,True
27.633333333333333,-0.24301397800445557,-50.54466786980629,1.1169754001106762,0,True
27.666666666666668,-0.3841558098793031,-50.787681847810745,0.7310830737928129,0,True
27.7,-0.3572052717208863,-51.17183765769005,0.41835165434296767,0,True
27.733333333333334,-0.27903449535369873,-51.529042929410934,0.1766542893894284,0,True
27.766666666666666,-0.2367897033691406,-51.80807742476463,-0.00969918629448027,0,True
27.8,-0.2840636968612671,-52.044867128133774,-0.1556169875235039,0,True
27.833333333333332,-0.2981311082839966,-52.32893082499504,-0.2721753422818147,0,True
27.866666666666667,-0.10471910238265993,-52.62706193327904,-0.37259137097144934,0,True
27.9,-0.025435805320739746,-52.7317810356617,-0.47928399351652073,0,True
27.933333333333334,-0.08726716041564941,-52.75721684098244,-0.6228326915016658,0,True
27.966666666666665,-0.32421767711639404,-52.84448400139809,-0.828520791213405,0,True
28.0,-0.3258073329925537,-53.16870167851448,-1.0953196605779245,0,True
28.033333333333335,-0.32896929979324346,-53.494509011507034,-1.3796720694134015,0,True
28.066666666666666,-0.25395607948303217,-53.82347831130028,-1.5968199734814086,0,True
28.1,-0.11975896358489989,-54.07743439078331,-1.6451542402392363,0,True
28.133333333333333,0.22680854797363278,-54.19719335436821,-1.4476149643671254,0,True
28.166666666666668,1.359083890914917,-53.97038480639458,-0.9930533799801377,0,True
28.2,1.5456554889678953,-52.61130091547966,-0.3551012051588427,0,True
28.233333333333334,0.6969119310379028,-51.065645426511765,0.32701204922095334,0,True
28.266666666666666,0.014438509941101072,-50.36873349547386,0.900796634146061,0,True
28.3,-0.0924689769744873,-50.35429498553276,1.2592961520653805,0,True
28.333333333333332,-0.36324959993362427,-50.44676396250725,1.3750758751053744,0,True
28.366666666666667,-0.3141918778419494,-50.81001356244087,1.2950662071954768,0,True
28.4,-0.17631614208221436,-51.12420544028282,1.1053515878384554,0,True
28.433333333333334,-0.06423068046569824,-51.300521582365036,0.8884684506495278,0,True
28.466666666666665,-0.17947393655776978,-51.364752262830734,0.6944826697263492,0,True
28.5,-0.3019016981124878,-51.544226199388504,0.5353920780085831,0,True
28.533333333333335,-0.3601292371749878,-51.84612789750099,0.39832329705342473,0,True
28.566666666666666,-0.4365772604942322,-52.20625713467598,0.264651998635195,0,True
28.6,-0.36272740364074707,-52.64283439517021,0.12308170181182654,0,True
28.633333333333333,-0.2898162603378296,-53.00556179881096,-0.02794080270522158,0,True
28.666666666666668,-0.30469948053359985,-53.29537805914879,-0.1851791564454797,0,True
28.7,-0.21198427677154538,-53.60007753968239,-0.3458217009201296,0,True
28.733333333333334,-0.22304213047027585,-53.812061816453934,-0.5074361076986875,0,True
28.766666666666666,-0.29995197057724,-54.03510394692421,-0.6622052571789775,0,True
28.8,-0.3288735151290893,-54.33505591750145,-0.7901762018510635,0,True
28.833333333333332,-0.34246051311492914,-54.66392943263054,-0.8584499268828157,0,True
28.866666666666667,0.007804930210113525,-55.00638994574547,-0.8305700750566497,0,True
28.9,0.21927517652511594,-54.998585015535355,-0.6837285240680108,0,True
28.933333333333334,0.2583944201469422,-54.77930983901024,-0.42503006808221167,0,True
28.966666666666665,0.529184877872467,-54.5209154188633,-0.09684341980978639,0,True
29.0,0.05561259388923645,-53.99173054099083,0.23349909664817786,0,True
29.033333333333335,0.024559497833251957,-53.93611794710159,0.49598504881619665,0,True
29.066666666666666,-0.39859992265701294,-53.91155844926834,0.6419502909140646,0,True
29.1,-0.3343247175216674,-54.310158371925354,0.658753243163358,0,True
29.133333333333333,-0.3697699308395386,-54.64448308944702,0.569377355573276,0,True
29.166666666666668,-0.4079321622848511,-55.01425302028656,0.41918620404110246,0,True
29.2,-0.3623336553573608,-55.42218518257141,0.25741808305195285,0,True
29.233333333333334,-0.4231219887733459,-55.78451883792877,0.12137895771019276,0,True
29.266666666666666,-0.04579275846481324,-56.20764082670212,0.02820287112333501,0,True
29.3,-0.36802673339843756,-56.25343358516693,-0.02470963237254005,0,True
29.333333333333332,-0.3574291467666626,-56.62146031856537,-0.05270732921042044,0,True
29.366666666666667,-0.29106783866882324,-56.97888946533203,-0.07480319325646219,0,True
29.4,-0.297461450099945,-57.269957304000854,-0.10684069012547111,0,True
29.433333333333334,-0.3344165086746216,-57.5674187541008,-0.15836524815335115,0,True
29.466666666666665,-0.25315523147583013,-57.90183526277542,-0.23167327305500193,0,True
29.5,-0.3087486028671264,-58.15499049425125,-0.32103240947027206,0,True
29.533333333333335,-0.31516826152801514,-58.46373909711838,-0.41168987876315793,0,True
29.566666666666666,-0.29688084125518793,-58.77890735864639,-0.4802418386187722,0,True
29.6,-0.15342390537261963,-59.07578819990158,-0.4986504481030825,0,True
29.633333333333333,-0.17079079151153564,-59.2292121052742,-0.4427568840525924,0,True
29.666666666666668,-0.16315597295761106,-59.400002896785736,-0.3031930504794195,0,True
29.7,0.49233132600784313,-59.56315886974335,-0.09384311137582299,0,True
29.733333333333334,0.22093188762664795,-59.070827543735504,0.14798274485675414,0,True
29.766666666666666,0.06296408176422119,-58.849895656108856,0.37283145472821716,0,True
29.8,-0.3846970796585083,-58.786931574344635,0.5380240096604462,0,True
29.833333333333332,-0.2469522953033447,-59.17162865400314,0.6237340070381606,0,True
29.866666666666667,-0.3134908676147461,-59.41858094930649,0.6365700041537405,0,True
29.9,-0.1963117718696594,-59.732071816921234,0.5996189672696454,0,True
29.933333333333334,-0.11938405036926271,-59.928383588790894,0.5367748288625658,0,True
29.966666666666665,-0.1931835412979126,-60.047767639160156,0.4614893012223251,0,True
30.0,-0.3269566297531128,-60.24095118045807,0.37545420073141256,0,True
30.033333333333335,-0.3556039333343506,-60.56790781021118,0.27544984121205746,0,True
30.066666666666666,-0.3095437288284302,-60.92351174354553,0.16176890838019078,0,True
30.1,-0.2577526569366455,-61.23305547237396,0.04193029627279702,0,True
30.133333333333333,-0.3595737814903259,-61.49080812931061,-0.07254263231584304,0,True
30.166666666666668,-0.2500839829444885,-61.850381910800934,-0.17416826761287632,0,True
30.2,-0.28716135025024414,-62.10046589374542,-0.2676968851814646,0,True
30.233333333333334,-0.21857321262359616,-62.38762724399567,-0.3730846165615076,0,True
30.266666666666666,-0.2613400220870972,-62.60620045661926,-0.5192483211561322,0,True
30.3,-0.3540264368057251,-62.86754047870636,-0.7283931208427822,0,True
30.333333333333332,-0.33147144317626953,-63.221566915512085,-0.9960568535347947,0,True
30.366666666666667,-0.2668266296386718,-63.553038358688354,-1.2763840822426467,0,True
30.4,-0.29313516616821284,-63.819864988327026,-1.4827665934961747,0,True
30.433333333333334,-0.12841463088989258,-64.11300015449524,-1.5095612399983627,0,True
30.466666666666665,0.5911046266555787,-64.24141478538513,-1.2716050511420047,0,True
30.5,1.0959440469741821,-63.65031015872955,-0.7472123852593995,0,True
30.533333333333335,1.4490185976028442,-62.55436611175537,-0.003218174627614894,0,True
30.566666666666666,1.487683057785034,-61.10534751415253,0.8152361090393544,0,True
30.6,0.07543465495109558,-59.61766445636749,1.530735591660089,0,True
30.633333333333333,0.04425501823425292,-59.5422298014164,1.9955331685643727,0,True
30.666666666666668,-0.42907404899597174,-59.497974783182144,2.1395741990537696,0,True
30.7,-0.42816698551177984,-59.927048832178116,1.9836223551207095,0,True
30.733333333333334,-0.4579416513442993,-60.355215817689896,1.617172535204622,0,True
30.766666666666666,-0.33377230167388916,-60.813157469034195,1.1575786654327287,0,True
30.8,-0.2741603255271912,-61.146929770708084,0.7106099901648766,0,True
30.833333333333332,-0.38357496261596674,-61.421090096235275,0.3456512476095866,0,True
30.866666666666667,-0.27921831607818604,-61.80466505885124,0.08805523365426514,0,True
30.9,-0.15289324522018433,-62.08388337492943,-0.07641374902228541,0,True
30.933333333333334,-0.029719173908233646,-62.23677662014961,-0.1911550108026754,0,True
30.966666666666665,-0.13785886764526367,-62.266495794057846,-0.3151008985976967,0,True
31.0,-0.40459626913070673,-62.40435466170311,-0.5060867490429916,0,True
31.033333333333335,-0.38605040311813354,-62.80895093083382,-0.8022447421706244,0,True
31.066666666666666,-0.319262683391571,-63.19500133395195,-1.2048252800708827,0,True
31.1,-0.29772520065307617,-63.51426401734352,-1.6672060557391604,0,True
31.133333333333333,-0.2763490676879883,-63.8119892179966,-2.09515578881559,0,True
31.166666666666668,-0.30844163894653315,-64.08833828568459,-2.363147662757386,0,True
31.2,0.32144469022750854,-64.39677992463112,-2.348442184417517,0,True
31.233333333333334,1.130060791969299,-64.07533523440361,-1.9762705937428908,0,True
31.266666666666666,1.6441049575805662,-62.94527444243431,-1.2588006045756164,0,True
31.3,1.627097487449646,-61.301169484853745,-0.3068283593920169,0,True
31.333333333333332,1.3456385135650637,-59.6740719974041,0.6969041133196556,0,True
31.366666666666667,0.65011727809906,-58.328433483839035,1.55457734499575,0,True
31.4,0.2078121304512024,-57.678316205739975,2.116243438213255,0,True
31.433333333333334,-0.24374812841415402,-57.47050407528877,2.3221574952225716,0,True
31.466666666666665,-0.4213672876358032,-57.71425220370293,2.2089338747022222,0,True
31.5,-0.4296625256538391,-58.13561949133873,1.8813390283720202,0,True
31.533333333333335,-0.3088475465774536,-58.56528201699257,1.46568502225455,0,True
31.566666666666666,-0.3173032999038697,-58.87412956357002,1.0657358546350548,0,True
31.6,-0.16692876815795896,-59.19143286347389,0.7372014445246045,0,True
31.633333333333333,-0.10051637887954712,-59.35836163163185,0.486193467771239,0,True
31.666666666666668,-0.29781055450439453,-59.4588780105114,0.2862262478505534,0,True
31.7,-0.3822920322418213,-59.75668856501579,0.10182985883939215,0,True
31.733333333333334,-0.34900581836700434,-60.138980597257614,-0.09351589335146682,0,True
31.766666666666666,-0.3757880926132202,-60.48798641562462,-0.3117713773169608,0,True
31.8,-0.30934202671051025,-60.86377450823784,-0.5550630836027657,0,True
31.833333333333332,-0.18232321739196777,-61.17311653494835,-0.8224576025003966,0,True
31.866666666666667,-0.1679089069366455,-61.35543975234032,-1.1103232495096524,0,True
31.9,-0.3801210522651672,-61.52334865927696,-1.4036210814615913,0,True
31.933333333333334,-0.09482598304748537,-61.90346971154213,-1.6637686645961374,0,True
31.966666666666665,-0.17352986335754395,-61.998295694589615,-1.8241408085236508,0,True
32.0,0.07572674751281738,-62.17182555794716,-1.8025981163479576,0,True
32.03333333333333,0.29487282037734985,-62.09609881043434,-1.5318996112718537,0,True
32.06666666666667,1.027839660644531,-61.80122599005699,-0.9974010818520822,0,True
32.1,1.6188286542892458,-60.77338632941246,-0.2625839369991515,0,True
32.13333333333333,1.4979861974716187,-59.154557675123215,0.5366199311243797,0,True
32.166666666666664,0.1340378522872925,-57.656571477651596,1.2335808786989555,0,True
32.2,-0.3642204999923706,-57.522533625364304,1.6911959620580412,0,True
32.233333333333334,-0.2761895656585693,-57.886754125356674,1.8489614046981095,0,True
32.266666666666666,-0.3828620314598084,-58.16294369101524,1.7334635480738703,0,True
32.3,-0.3919414877891541,-58.54580572247505,1.4328168506078833,0,True
32.333333333333336,-0.360243558883667,-58.937747210264206,1.054573849572404,0,True
32.36666666666667,-0.4282897710800171,-59.29799076914787,0.6888202884111538,0,True
32.4,-0.27889144420623774,-59.72628054022789,0.3885229494638876,0,True
32.43333333333333,-0.2700689435005188,-60.00517198443413,0.16790265987047417,0,True
32.46666666666667,-0.29942166805267334,-60.27524092793465,0.012513422764677961,0,True
32.5,-0.24816268682479858,-60.57466259598732,-0.1071057512671102,0,True
32.53333333333333,-0.2809182405471802,-60.82282528281212,-0.2241655565403915,0,True
32.56666666666667,-0.40487033128738403,-61.1037435233593,-0.3685881929400239,0,True
32.6,-0.3329573273658752,-61.50861385464668,-0.5623334484839917,0,True
32.63333333333333,-0.1797535419464111,-61.84157118201256,-0.8138082342037819,0,True
32.666666666666664,-0.2829360365867614,-62.02132472395897,-1.1095958257560188,0,True
32.7,-0.32808423042297363,-62.30426076054573,-1.4059580565570924,0,True
32.733333333333334,-0.305290699005127,-62.632344990968704,-1.6274812616590346,0,True
32.766666666666666,-0.10792744159698485,-62.93763568997383,-1.6812626484818987,0,True
32.8,0.23348602652549744,-63.045563131570816,-1.488564072563555,0,True
32.833333333333336,0.8534318208694458,-62.81207710504532,-1.0240013881986574,0,True
32.86666666666667,1.5504901409149168,-61.95864528417587,-0.3424671500944146,0,True
32.9,1.615903615951538,-60.408155143260956,0.4257019394626877,0,True
32.93333333333333,-0.07502222061157228,-58.79225152730942,1.1163033333691488,0,True
32.96666666666667,-0.2798759937286377,-58.86727374792099,1.5917058193442417,0,True
33.0,-0.2218221426010132,-59.14714974164963,1.787957815279689,0,True
33.03333333333333,-0.2932839393615723,-59.36897188425064,1.7250887279139746,0,True
33.06666666666667,-0.4008113145828247,-59.66225582361221,1.4819297427534748,0,True
33.1,-0.3810153007507324,-60.06306713819504,1.1555392866458087,0,True
33.13333333333333,-0.3102571964263916,-60.44408243894577,0.8265747789293374,0,True
33.166666666666664,-0.34562933444976807,-60.75433963537216,0.5420763346107891,0,True
33.2,-0.36341142654418945,-61.09996896982193,0.31600159955842705,0,True
33.233333333333334,-0.2933686971664428,-61.46338039636612,0.14041257722605985,0,True
33.266666666666666,-0.2426690459251404,-61.75674909353256,-0.0018124395364551352,0,True
33.3,-0.34632730484008784,-61.9994181394577,-0.12897279564563036,0,True
33.333333333333336,-0.22783380746841428,-62.34574544429779,-0.2584525545329319,0,True
33.36666666666667,-0.2656545639038086,-62.573579251766205,-0.4076225156551634,0,True
33.4,-0.3188114166259765,-62.83923381567001,-0.5931418830396041,0,True
33.43333333333333,-0.32314074039459234,-63.15804523229599,-0.8253604510700004,0,True
33.46666666666667,-0.29740142822265625,-63.48118597269058,-1.098264765323985,0,True
33.5,-0.38571989536285406,-63.77858740091324,-1.37959814531569,0,True
33.53333333333333,-0.2558123469352722,-64.16430729627609,-1.6080854606026502,0,True
33.56666666666667,0.0010434985160827635,-64.42011964321136,-1.7034987631118017,0,True
33.6,0.4685010313987732,-64.41907614469528,-1.5901092906108723,0,True
33.63333333333333,0.6047780513763428,-63.95057511329651,-1.2267728821878592,0,True
33.666666666666664,0.7635419368743898,-63.345797061920166,-0.6316649887243891,0,True
33.7,1.5600836277008057,-62.582255125045776,0.11039899472849289,0,True
33.733333333333334,0.9780415892601012,-61.02217149734497,0.8650229640172075,0,True
33.766666666666666,0.30403721332550043,-60.04412990808487,1.487064037163764,0,True
33.8,-0.29468524456024175,-59.74009269475937,1.8667122650142585,0,True
33.833333333333336,-0.27270978689193726,-60.03477793931961,1.961859342500545,0,True
33.86666666666667,-0.23423755168914795,-60.30748772621155,1.8027750753949332,0,True
33.9,-0.49196505546569824,-60.541725277900696,1.4711940176013982,0,True
33.93333333333333,-0.41939342021942144,-61.033690333366394,1.0675869393912079,0,True
33.96666666666667,-0.4672384262084961,-61.453083753585815,0.6807040543512047,0,True
34.0,-0.1415594220161438,-61.92032217979431,0.3672145559207858,0,True
34.03333333333333,-0.2622677087783814,-62.061881601810455,0.14355673526864254,0,True
34.06666666666667,-0.2889621257781982,-62.32414931058884,-0.011082271156037044,0,True
34.1,-0.2862105369567871,-62.613111436367035,-0.14346268634583875,0,True
34.13333333333333,-0.19229984283447266,-62.89932197332382,-0.3098078584707555,0,True
34.166666666666664,-0.32167339324951166,-63.091621816158295,-0.5563369607357527,0,True
34.2,-0.3293123245239258,-63.413295209407806,-0.8989349064289034,0,True
34.233333333333334,-0.39445054531097407,-63.74260753393173,-1.3066409370706429,0,True
34.266666666666666,-0.3977737426757812,-64.1370580792427,-1.6969173795173893,0,True
34.3,-0.3228234052658081,-64.53483182191849,-1.950543323791528,0,True
34.333333333333336,0.23085236549377441,-64.8576552271843,-1.9478796180343656,0,True
34.36666666666667,0.8984810113906859,-64.62680286169052,-1.6171633755051122,0,True
34.4,1.2542076110839844,-63.728321850299835,-0.9748483239185247,0,True
34.43333333333333,1.6527423858642578,-62.47411423921585,-0.13593868026221959,0,True
34.46666666666667,1.3423126935958862,-60.82137185335159,0.7166195914591355,0,True
34.5,-0.019668221473693848,-59.47905915975571,1.3940477753431018,0,True
34.53333333333333,-0.45426350831985474,-59.4987273812294,1.767328148687252,0,True
34.56666666666667,-0.4474083185195923,-59.952990889549255,1.804406974703071,0,True
34.6,-0.3866701126098632,-60.40039920806885,1.5635541949286609,0,True
34.63333333333333,-0.45085895061492925,-60.78706932067871,1.1533980620084379,0,True
34.666666666666664,-0.4546549320220947,-61.23792827129364,0.6858748280349816,0,True
34.7,-0.3687982559204101,-61.692583203315735,0.24488901557672035,0,True
34.733333333333334,-0.35735619068145746,-62.061381459236145,-0.1213605663246948,0,True
34.766666666666666,-0.29007506370544434,-62.4187376499176,-0.3905893647742496,0,True
34.8,-0.3452684879302978,-62.70881271362305,-0.5523564937443858,0,True
34.833333333333336,-0.18303143978118896,-63.054081201553345,-0.6016160280083467,0,True
34.86666666666667,-0.08164948225021362,-63.237112641334534,-0.5440272446194977,0,True
34.9,0.2991767823696136,-63.31876212358475,-0.4070710562711049,0,True
34.93333333333333,0.6517398357391357,-63.019585341215134,-0.24446802015364014,0,True
34.96666666666667,-0.00865679979324341,-62.367845505476,-0.12356096104220665,0,True
35.0,-0.44931483268737793,-62.37650230526924,-0.09693068670373434,0,True
35.03333333333333,-0.4295604228973389,-62.82581713795662,-0.17338145852628503,0,True
35.06666666666667,-0.40105152130126953,-63.25537756085396,-0.3076084580130951,0,True
35.1,-0.2267681360244751,-63.65642908215523,-0.41749854513750867,0,True
35.13333333333333,-0.17878997325897217,-63.8831972181797,-0.42145452616728557,0,True
35.166666666666664,0.8411797881126405,-64.06198719143867,-0.27704269322355163,0,True
35.2,0.5665039420127868,-63.220807403326035,-0.001465684523940578,0,True
35.233333333333334,-0.08701777458190917,-62.65430346131325,0.3364302973523706,0,True
35.266666666666666,0.21501082181930542,-62.74132123589516,0.6472006041240467,0,True
35.3,-0.22617393732070926,-62.52631041407585,0.856975845841935,0,True
35.333333333333336,-0.3391965627670288,-62.75248435139656,0.9309363211647822,0,True
35.36666666666667,-0.2722139358520508,-63.09168091416359,0.8766884377437525,0,True
35.4,-0.24632978439331052,-63.36389485001564,0.7312682331872015,0,True
35.43333333333333,-0.3225760459899902,-63.61022463440895,0.5415621276358039,0,True
35.46666666666667,-0.29797470569610596,-63.93280068039894,0.3477984722544249,0,True
35.5,-0.3395106792449951,-64.23077538609505,0.17487231643265272,0,True
35.53333333333333,-0.35766118764877325,-64.57028606534004,0.03073822264766984,0,True
35.56666666666667,-0.3062776327133178,-64.92794725298882,-0.09141127033015094,0,True
35.6,-0.2620480060577392,-65.23422488570213,-0.20958183935512542,0,True
35.63333333333333,-0.35625529289245605,-65.49627289175987,-0.3481007632603297,0,True
35.666666666666664,-0.3217118382453918,-65.85252818465233,-0.5301632764526297,0,True
35.7,-0.3852825164794922,-66.17424002289772,-0.7674381980332666,0,True
35.733333333333334,-0.327467143535614,-66.55952253937721,-1.0488291839719792,0,True
35.766666666666666,-0.34877312183380127,-66.88698968291283,-1.332950103949387,0,True
35.8,-0.25465571880340576,-67.23576280474663,-1.5498979702684879,0,True
35.833333333333336,0.19754254817962646,-67.49041852355003,-1.6161712979303877,0,True
35.86666666666667,0.15266841650009152,-67.2928759753704,-1.4615728175702738,0,True
35.9,0.487026572227478,-67.14020755887032,-1.060309328128424,0,True
35.93333333333333,1.2644712924957278,-66.65318098664284,-0.4533846047058152,0,True
35.96666666666667,1.6052880287170412,-65.38870969414711,0.2514127009512708,0,True
36.0,0.350288987159729,-63.78342166543007,0.9088924383127871,0,True
36.03333333333333,-0.14539325237274173,-63.43313267827034,1.3866585367631217,0,True
36.06666666666667,-0.13448655605316162,-63.57852593064308,1.6120571293013186,0,True
36.1,-0.375240683555603,-63.71301248669624,1.591572796000442,0,True
36.13333333333333,-0.3492012023925781,-64.08825317025185,1.3955752580032832,0,True
36.166666666666664,-0.38904690742492676,-64.43745437264442,1.1206978994951664,0,True
36.2,-0.10739767551422119,-64.82650128006935,0.8502173701176807,0,True
36.233333333333334,0.0019592642784118652,-64.93389895558357,0.6292894401381893,0,True
36.266666666666666,-0.31724649667739874,-64.93193969130516,0.46213357475298994,0,True
36.3,-0.3349000215530395,-65.24918618798256,0.32685951281209136,0,True
36.333333333333336,-0.32967084646224976,-65.5840862095356,0.1957181135203473,0,True
36.36666666666667,-0.44591355323791504,-65.91375705599785,0.04874906176044462,0,True
36.4,-0.3462312817573547,-66.35967060923576,-0.12372104847499413,0,True
36.43333333333333,-0.28794968128204346,-66.70590189099312,-0.3256529001577775,0,True
36.46666666666667,-0.15977048873901364,-66.99385157227516,-0.5586562848763704,0,True
36.5,-0.3270001411437989,-67.15362206101418,-0.8179205642562207,0,True
36.53333333333333,-0.2689952254295349,-67.48062220215797,-1.0815324172041827,0,True
36.56666666666667,-0.3857771158218383,-67.74961742758751,-1.3016661460869416,0,True
36.6,-0.35235953330993647,-68.13539454340935,-1.4087076573974417,0,True
36.63333333333333,-0.392278790473938,-68.48775407671928,-1.333795663185638,0,True
36.666666666666664,1.2545609474182131,-68.88003286719322,-1.0432726767317628,0,True
36.7,0.9382992386817933,-67.62547191977501,-0.5665595316894756,0,True
36.733333333333334,0.7510125637054442,-66.68717268109322,0.002803624159521507,0,True
36.766666666666666,0.1732957065105438,-65.93616011738777,0.5386254738869545,0,True
36.8,-0.18204849958419803,-65.76286441087723,0.9300524195024829,0,True
36.833333333333336,-0.26398253440856934,-65.94491291046143,1.119898775215628,0,True
36.86666666666667,-0.3679489493370056,-66.20889544487,1.1156414135546682,0,True
36.9,-0.3916388154029847,-66.576844394207,0.9730201049819276,0,True
36.93333333333333,-0.16940027475357056,-66.96848320960999,0.7656124317562258,0,True
36.96666666666667,-0.3381522893905639,-67.13788348436356,0.5567848491638504,0,True
37.0,-0.29229187965393066,-67.47603577375412,0.3845662447455038,0,True
37.03333333333333,-0.3656500577926636,-67.76832765340805,0.2605968601456459,0,True
37.06666666666667,-0.34699368476867676,-68.13397771120071,0.1772777482160998,0,True
37.1,-0.26018214225769043,-68.48097139596939,0.1160504067718426,0,True
37.13333333333333,-0.1935354471206665,-68.74115353822708,0.05333536334312457,0,True
37.166666666666664,-0.40223526954650873,-68.93468898534775,-0.03498040468033339,0,True
37.2,-0.2905837893486023,-69.33692425489426,-0.1679534523256215,0,True
37.233333333333334,-0.31620985269546503,-69.62750804424286,-0.35184426365392013,0,True
37.266666666666666,-0.2676351070404052,-69.94371789693832,-0.5719438190642273,0,True
37.3,-0.42191970348358154,-70.21135300397873,-0.7880754059317542,0,True
37.333333333333336,-0.15581977367401123,-70.63327270746231,-0.9389983391432841,0,True
37.36666666666667,-0.33254688978195185,-70.78909248113632,-0.9591151203276667,0,True
37.4,0.002915263175964356,-71.12163937091827,-0.8050055864729186,0,True
37.43333333333333,1.094955921173096,-71.11872410774231,-0.48127878548582465,0,True
37.46666666666667,1.1941876411437988,-70.02376818656921,-0.050082035839681516,0,True
37.5,-0.0744379162788391,-68.82958054542542,0.3867939222616427,0,True
37.53333333333333,0.06978517770767212,-68.90401846170425,0.7277869504779485,0,True
37.56666666666667,-0.16197562217712405,-68.83423328399658,0.9112273082333588,0,True
37.6,-0.4236538410186767,-68.9962089061737,0.9322294217651934,0,True
37.63333333333333,-0.3680211305618286,-69.41986274719238,0.8305150608274043,0,True
37.666666666666664,0.08557605743408203,-69.78788387775421,0.6606264262007064,0,True
37.7,0.16277766227722168,-69.70230782032013,0.4640104788460725,0,True
37.733333333333334,-0.3153600096702575,-69.53953015804291,0.258565713009346,0,True
37.766666666666666,-0.354764461517334,-69.85489016771317,0.0478765774115111,0,True
37.8,-0.36745238304138184,-70.2096546292305,-0.16186234644739175,0,True
37.833333333333336,-0.3824682235717773,-70.57710701227188,-0.35320346663244095,0,True
37.86666666666667,-0.25127190351486206,-70.95957523584366,-0.5045108385890024,0,True
37.9,-0.18647450208663938,-71.21084713935852,-0.607153504270414,0,True
37.93333333333333,0.48157480359077465,-71.39732164144516,-0.6786814560508982,0,True
37.96666666666667,0.5421941876411438,-70.91574683785439,-0.7581336646890008,0,True
38.0,-0.4495118856430054,-70.37355265021324,-0.879924367271057,0,True
38.03333333333333,-0.320842981338501,-70.82306453585625,-1.0394382936253457,0,True
38.06666666666667,-0.18497294187545776,-71.14390751719475,-1.1748776518239379,0,True
38.1,-0.09355628490448,-71.3288804590702,-1.1838167845743093,0,True
38.13333333333333,0.4220654666423797,-71.42243674397469,-0.9714619687395868,0,True
38.166666666666664,1.65948224067688,-71.0003712773323,-0.5062605717638722,0,True
38.2,1.4909131526947021,-69.34088903665543,0.14925454878268618,0,True
38.233333333333334,0.9811367392539978,-67.84997588396072,0.853431748876768,0,True
38.266666666666666,-0.002128362655639649,-66.86883914470673,1.4411019749328413,0,True
38.3,-0.3243019580841065,-66.87096750736237,1.7893586740818639,0,True
38.333333333333336,-0.1511909365653992,-67.19526946544647,1.8582518993765944,0,True
38.36666666666667,-0.3046589493751526,-67.34646040201187,1.689987583041335,0,True
38.4,-0.30837756395339966,-67.65111935138702,1.375891341817956,0,True
38.43333333333333,-0.31114923954010015,-67.95949691534042,1.0139419249568775,0,True
38.46666666666667,-0.2376753091812134,-68.27064615488052,0.6767106168210212,0,True
38.5,-0.28280508518218994,-68.50832146406174,0.39826567400894447,0,True
38.53333333333333,-0.4167037010192871,-68.79112654924393,0.17788757386364115,0,True
38.56666666666667,-0.4331278800964355,-69.20783025026321,-0.007485445205931276,0,True
38.6,-0.2617467641830444,-69.64095813035965,-0.1901256688410533,0,True
38.63333333333333,-0.31616616249084467,-69.9027048945427,-0.40112416379133714,0,True
38.666666666666664,-0.38066357374191273,-70.21887105703354,-0.661328084717989,0,True
38.7,-0.3412967920303345,-70.59953463077545,-0.9714906802006071,0,True
38.733333333333334,-0.31026262044906616,-70.94083142280579,-1.303004278192525,0,True
38.766666666666666,-0.29847204685211176,-71.25109404325485,-1.594565611423666,0,True
38.8,-0.33077490329742426,-71.54956609010696,-1.7612135359489387,0,True
38.833333333333336,0.087651789188385,-71.88034099340439,-1.7187945955667367,0,True
38.86666666666667,0.513787031173706,-71.792689204216,-1.4189415978033815,0,True
38.9,1.1116105318069458,-71.2789021730423,-0.8801913435871024,0,True
38.93333333333333,1.22501277923584,-70.16729164123535,-0.19688235201257936,0,True
38.96666666666667,0.9895960092544556,-68.94227886199951,0.48501364621482607,0,True
39.0,-0.3596925735473633,-67.95268285274506,1.0184394171638034,0,True
39.03333333333333,-0.3223706483840943,-68.31237542629242,1.3084187285990119,0,True
39.06666666666667,-0.3386975526809693,-68.63474607467651,1.340862918337972,0,True
39.1,-0.3508805632591247,-68.97344362735748,1.1749963962746073,0,True
39.13333333333333,-0.37386012077331543,-69.32432419061661,0.9088151699345609,0,True
39.166666666666664,-0.2976745367050171,-69.69818431138992,0.6383104266362088,0,True
39.2,-0.23389822244644165,-69.99585884809494,0.42800702987782424,0,True
39.233333333333334,-0.1336369514465332,-70.22975707054138,0.3002587917414064,0,True
39.266666666666666,-0.2879278659820557,-70.36339402198792,0.24137304710570956,0,True
39.3,-0.09593582153320311,-70.65132188796997,0.217097602057941,0,True
39.333333333333336,-0.3334033489227295,-70.74725770950317,0.18896125406316705,0,True
39.36666666666667,-0.32870918512344355,-71.0806610584259,0.1256701018045564,0,True
39.4,-0.3245969414710998,-71.40937024354935,0.008087129878025961,0,True
39.43333333333333,-0.42259377241134644,-71.73396718502045,-0.1700010392534967,0,True
39.46666666666667,-0.3162040710449219,-72.1565609574318,-0.4015879662838606,0,True
39.5,-0.30031716823577886,-72.47276502847672,-0.6642159220977025,0,True
39.53333333333333,-0.38907504081726074,-72.7730821967125,-0.9169755200375357,0,True
39.56666666666667,-0.35510903596878046,-73.16215723752975,-1.101479654306349,0,True
39.6,0.04003715515136719,-73.51726627349854,-1.1521893675523345,0,True
39.63333333333333,-0.07415074110031128,-73.47722911834717,-1.017229550531085,0,True
39.666666666666664,0.8540935516357423,-73.55137985944748,-0.6832931740736315,0,True
39.7,0.735701084136963,-72.69728630781174,-0.1923153589266098,0,True
39.733333333333334,0.7075963020324706,-71.96158522367477,0.36179453713228715,0,True
39.766666666666666,0.5167968273162842,-71.2539889216423,0.8593406015673871,0,True
39.8,-0.289681077003479,-70.73719209432602,1.194280854057562,0,True
39.833333333333336,-0.3948664665222168,-71.0268731713295,1.309068833404997,0,True
39.86666666666667,-0.3843585848808288,-71.42173963785172,1.2091513421602582,0,True
39.9,-0.41749548912048345,-71.80609822273254,0.9525715301273096,0,True
39.93333333333333,-0.4268447160720826,-72.22359371185303,0.6227875658580657,0,True
39.96666666666667,-0.37923687696456904,-72.65043842792511,0.29855387639050746,0,True
40.0,-0.33391261100769043,-73.02967530488968,0.03192165985071248,0,True
40.03333333333333,-0.26351821422576904,-73.36358791589737,-0.16090042543166513,0,True
40.06666666666667,-0.1433776617050171,-73.62710613012314,-0.29622973592570023,0,True
40.1,-0.2532445192337036,-73.77048379182816,-0.4103512749569027,0,True
40.13333333333333,-0.31723690032958984,-74.02372831106186,-0.5422230512358283,0,True
40.166666666666664,-0.2852306365966797,-74.34096521139145,-0.7164562990249272,0,True
40.2,-0.21736544370651245,-74.62619584798813,-0.9311013512185794,0,True
40.233333333333334,-0.25459349155426025,-74.84356129169464,-1.1532333718204828,0,True
40.266666666666666,-0.1704042553901672,-75.0981547832489,-1.3236841343907102,0,True
40.3,0.4448288679122925,-75.26855903863907,-1.3708875917262,0,True
40.333333333333336,0.26272910833358765,-74.82373017072678,-1.2317955328309358,0,True
40.36666666666667,0.2476072311401367,-74.56100106239319,-0.8753139835519077,0,True
40.4,0.9250818490982056,-74.31339383125305,-0.3217984366298507,0,True
40.43333333333333,1.2908397912979126,-73.38831198215485,0.3496467346523414,0,True
40.46666666666667,1.3788100481033325,-72.09747219085693,1.0147677100568426,0,True
40.5,-0.014048576354980469,-70.7186621427536,1.540616910554825,0,True
40.53333333333333,-0.3615305423736572,-70.73271071910858,1.8318133544812976,0,True
40.56666666666667,-0.40402233600616455,-71.09424126148224,1.862463917265462,0,True
40.6,-0.3308600187301636,-71.4982635974884,1.6761140791906672,0,True
40.63333333333333,-0.3629983067512513,-71.82912361621857,1.3566604709631622,0,True
40.666666666666664,-0.15023493766784668,-72.19212192296982,0.9897661593220405,0,True
40.7,-0.2901506423950195,-72.34235686063766,0.6352983741908963,0,True
40.733333333333334,-0.2563087940216064,-72.63250750303268,0.32021857559299016,0,True
40.766666666666666,-0.333909273147583,-72.88881629705429,0.04808381537497344,0,True
40.8,-0.46717464923858637,-73.22272557020187,-0.18653343548515225,0,True
40.833333333333336,-0.3136393427848816,-73.68990021944046,-0.3897985115515836,0,True
40.86666666666667,-0.2513638734817505,-74.00353956222534,-0.5702288927464357,0,True
40.9,-0.05886650085449218,-74.25490343570709,-0.7447367361807743,0,True
40.93333333333333,0.020773530006408695,-74.31376993656158,-0.9388790692149818,0,True
40.96666666666667,0.029366493225097656,-74.29299640655518,-1.1743370249524987,0,True
41.0,-0.32520341873168945,-74.26362991333008,-1.4465877155943871,0,True
41.03333333333333,-0.41450428962707525,-74.58883333206177,-1.706292516197347,0,True
41.06666666666667,-0.25460660457611084,-75.00333762168884,-1.8611850450410765,0,True
41.1,0.09298694133758545,-75.25794422626495,-1.8063808262224017,0,True
41.13333333333333,1.1780385971069336,-75.16495728492737,-1.473349824345417,0,True
41.166666666666664,1.6499840021133423,-73.98691868782043,-0.8724029775383461,0,True
41.2,1.5065003633499146,-72.33693468570709,-0.10248618228751936,0,True
41.233333333333334,0.2962627112865448,-70.83043432235718,0.6806506796922679,0,True
41.266666666666666,0.17060586810112,-70.53417161107063,1.3214218261267818,0,True
41.3,0.5415003299713135,-70.36356574296951,1.7160330541619484,0,True
41.333333333333336,-0.2878231406211853,-69.8220654129982,1.8363445245976422,0,True
41.36666666666667,-0.39162975549697876,-70.10988855361938,1.7230861697061919,0,True
41.4,-0.34659898281097407,-70.50151830911636,1.4589040816663208,0,True
41.43333333333333,-0.27022916078567505,-70.84811729192734,1.1348035832868277,0,True
41.46666666666667,-0.2217694520950318,-71.11834645271301,0.8221637993958506,0,True
41.5,-0.3077110052108764,-71.34011590480804,0.5584578727186761,0,True
41.53333333333333,-0.3942403197288514,-71.64782691001892,0.34779365124044237,0,True
41.56666666666667,-0.34407395124435425,-72.04206722974777,0.17105086832550978,0,True
41.6,-0.28586876392364496,-72.38614118099213,-0.001136651683969464,0,True
41.63333333333333,-0.24002420902252197,-72.67200994491577,-0.19636822217699215,0,True
41.666666666666664,-0.36981105804443354,-72.9120341539383,-0.42990549077513496,0,True
41.7,-0.33753752708435064,-73.28184521198273,-0.6956799949690169,0,True
41.733333333333334,-0.30295443534851074,-73.61938273906708,-0.9612192184501418,0,True
41.766666666666666,-0.2559249997138977,-73.92233717441559,-1.1704395135946029,0,True
41.8,-0.14938604831695554,-74.17826217412949,-1.2570291632623252,0,True
41.833333333333336,0.3743271827697754,-74.32764822244644,-1.167085267368498,0,True
41.86666666666667,-0.1828130483627319,-73.95332103967667,-0.8842741625602395,0,True
41.9,1.2156260013580322,-74.1361340880394,-0.4466410221549887,0,True
41.93333333333333,1.1801397800445557,-72.92050808668137,0.05599180978746547,0,True
41.96666666666667,-0.06894683837890625,-71.74036830663681,0.5088187436721684,0,True
42.0,-0.4076021909713745,-71.80931514501572,0.8141680582987936,0,True
42.03333333333333,-0.36893910169601446,-72.21691733598709,0.9270629242385422,0,True
42.06666666666667,-0.22890210151672363,-72.5858564376831,0.8645011320987602,0,True
42.1,-0.2590113282203674,-72.81475853919983,0.6868435970949969,0,True
42.13333333333333,-0.36445367336273193,-73.0737698674202,0.4664272126837059,0,True
42.166666666666664,-0.28139328956604004,-73.43822354078293,0.26088811733401457,0,True
42.2,-0.17173659801483154,-73.71961683034897,0.10046595635505728,0,True
42.233333333333334,-0.3007781505584717,-73.8913534283638,-0.01060100693691552,0,True
42.266666666666666,-0.177750825881958,-74.19213157892227,-0.08398435205950504,0,True
42.3,-0.11785268783569336,-74.36988240480423,-0.13558915025718687,0,True
42.333333333333336,-0.30459070205688477,-74.48773509263992,-0.17797253193858031,0,True
42.36666666666667,-0.27182286977767944,-74.79232579469681,-0.21913295420885304,0,True
42.4,-0.24347198009490964,-75.06414866447449,-0.26622946906680706,0,True
42.43333333333333,-0.08641231060028076,-75.3076206445694,-0.3297158894637762,0,True
42.46666666666667,0.08090963959693907,-75.39403295516968,-0.42217836924292634,0,True
42.5,-0.3972094058990479,-75.31312331557274,-0.5489917009425808,0,True
42.53333333333333,-0.3049602508544922,-75.71033272147179,-0.6947449372025549,0,True
42.56666666666667,0.028469324111938473,-76.01529297232628,-0.8154694355837057,0,True
42.6,-0.28082549571990967,-75.98682364821434,-0.8460537689317452,0,True
42.63333333333333,-0.27412652969360357,-76.26764914393425,-0.7244951582175195,0,True
42.666666666666664,0.764352858066559,-76.54177567362785,-0.4246325342752201,0,True
42.7,1.2884236574172976,-75.7774228155613,0.019190338376716798,0,True
42.733333333333334,0.7685413360595703,-74.488999158144,0.513500586007095,0,True
42.766666666666666,-0.023869514465332028,-73.72045782208443,0.9390365900239268,0,True
42.8,-0.36024069786071783,-73.74432733654976,1.2003583017128634,0,True
42.833333333333336,-0.29451215267181396,-74.10456803441048,1.2631192063126782,0,True
42.86666666666667,-0.38035881519317627,-74.39908018708229,1.1589163289586064,0,True
42.9,-0.4238898158073426,-74.77943900227547,0.9592548422060316,0,True
42.93333333333333,0.0022706985473632812,-75.20332881808281,0.7369691062349194,0,True
42.96666666666667,0.12344855070114134,-75.20105811953545,0.5365580231395488,0,True
43.0,-0.42164051532745356,-75.0776095688343,0.36644630367268205,0,True
43.03333333333333,-0.2987155914306641,-75.49925008416176,0.2120559346245264,0,True
43.06666666666667,-0.34584689140319824,-75.79796567559242,0.0566825602019044,0,True
43.1,-0.32043993473052984,-76.14381256699562,-0.10473452207025319,0,True
43.13333333333333,-0.3031396269798279,-76.46425250172615,-0.2657770778533599,0,True
43.166666666666664,-0.16064119338989255,-76.76739212870598,-0.4191399839114704,0,True
43.2,-0.20699489116668704,-76.92803332209587,-0.5681095407950986,0,True
43.233333333333334,-0.17806148529052732,-77.13502821326256,-0.7293450894491599,0,True
43.266666666666666,0.05850225687026977,-77.31308969855309,-0.922459235128426,0,True
43.3,-0.26459383964538574,-77.25458744168282,-1.1497512713398341,0,True
43.333333333333336,-0.33250772953033453,-77.5191812813282,-1.3768637855462167,0,True
43.36666666666667,-0.1574795842170715,-77.85168901085854,-1.5284209366020192,0,True
43.4,0.05751591920852661,-78.00916859507561,-1.5080763703222957,0,True
43.43333333333333,0.3827364444732666,-77.95165267586708,-1.2396753404916625,0,True
43.46666666666667,1.375598430633545,-77.56891623139381,-0.7118136141739447,0,True
43.5,1.5465078353881836,-76.19331780076027,-0.0010522254851709242,0,True
43.53333333333333,1.3272404670715332,-74.64680996537209,0.7441746549015588,0,True
43.56666666666667,-0.21328777074813843,-73.31956949830055,1.3564183750659842,0,True
43.6,-0.27751064300537104,-73.53285726904869,1.7129674473151173,0,True
43.63333333333333,-0.2773977518081665,-73.81036791205406,1.7765868063325263,0,True
43.666666666666664,-0.3177328705787659,-74.08776566386223,1.5949363279403688,0,True
43.7,-0.29671758413314814,-74.405498534441,1.2665016539751401,0,True
43.733333333333334,-0.2664243578910827,-74.70221611857414,0.8964204677425653,0,True
43.766666666666666,-0.31506550312042236,-74.96864047646523,0.5632532897666348,0,True
43.8,-0.15835845470428467,-75.28370597958565,0.3056900596243422,0,True
43.833333333333336,-0.20693087577819821,-75.44206443428993,0.12663711927142643,0,True
43.86666666666667,-0.2970956563949585,-75.64899531006813,0.006057153906353092,0,True
43.9,-0.22369182109832758,-75.94609096646309,-0.08619741816889237,0,True
43.93333333333333,-0.11289000511169435,-76.16978278756142,-0.18219038347094627,0,True
43.96666666666667,-0.1344369649887085,-76.28267279267311,-0.31139529205913935,0,True
44.0,-0.40512925386428833,-76.41710975766182,-0.4957035906892939,0,True
44.03333333333333,-0.3423280119895935,-76.82223901152611,-0.7413612327233574,0,True
44.06666666666667,-0.2613030672073364,-77.1645670235157,-1.0297123260179089,0,True
44.1,-0.23305034637451172,-77.42587009072304,-1.3118282400859793,0,True
44.13333333333333,-0.12894046306610105,-77.65892043709755,-1.512429632445453,0,True
44.166666666666664,-0.1515251398086548,-77.78786090016365,-1.5466536188717603,0,True
44.2,0.27693870663642883,-77.9393860399723,-1.348857008982508,0,True
44.233333333333334,0.6491053104400635,-77.66244733333588,-0.9052587765904502,0,True
44.266666666666666,1.410665273666382,-77.01334202289581,-0.27481215015732074,0,True
44.3,1.6068408489227297,-75.60267674922943,0.4179428970762793,0,True
44.333333333333336,-0.20740991830825806,-73.9958359003067,1.0225836441681897,0,True
44.36666666666667,-0.4309642910957336,-74.20324581861496,1.4188511805615018,0,True
44.4,-0.29777902364730835,-74.6342101097107,1.558671968898866,0,True
44.43333333333333,-0.3301132917404175,-74.931989133358,1.47180711182468,0,True
44.46666666666667,-0.2913951277732849,-75.26210242509842,1.2376830678189343,0,True
44.5,-0.3764011859893798,-75.5534975528717,0.9449996786631164,0,True
44.53333333333333,-0.33389747142791754,-75.92989873886108,0.6609385907283899,0,True
44.56666666666667,-0.2726297974586486,-76.263796210289,0.41988332121448585,0,True
44.6,-0.3782739043235778,-76.53642600774765,0.22918966637441837,0,True
44.63333333333333,-0.39326268434524536,-76.91469991207123,0.08253913072431637,0,True
44.666666666666664,-0.32616388797760004,-77.30796259641647,-0.029241922736135257,0,True
44.7,-0.19082450866699222,-77.63412648439407,-0.11536556467909521,0,True
44.733333333333334,-0.06708168983459471,-77.82495099306107,-0.18873611012854544,0,True
44.766666666666666,-0.31087255477905273,-77.89203268289566,-0.2697238802093337,0,True
44.8,-0.3423919677734375,-78.20290523767471,-0.38417402794369376,0,True
44.833333333333336,-0.34769511222839355,-78.54529720544815,-0.5542797097593033,0,True
44.86666666666667,-0.35944253206253046,-78.89299231767654,-0.7854735045303203,0,True
44.9,-0.3181513547897339,-79.25243484973907,-1.0547118572169782,0,True
44.93333333333333,-0.3058715462684632,-79.57058620452881,-1.3060652414329184,0,True
44.96666666666667,-0.1521168351173401,-79.87645775079727,-1.4588072499776512,0,True
45.0,-0.11402726173400879,-80.02857458591461,-1.429988790140864,0,True
45.03333333333333,0.3875113725662232,-80.14260184764862,-1.167038875753366,0,True
45.06666666666667,1.0582451820373537,-79.7550904750824,-0.678039669480408,0,True
45.1,1.4010311365127563,-78.69684529304504,-0.042798178253976124,0,True
45.13333333333333,0.670890748500824,-77.29581415653229,0.6071042277607664,0,True
45.166666666666664,0.23496127128601071,-76.62492340803146,1.1349322973701645,0,True
45.2,-0.4006360173225403,-76.38996213674545,1.4498149157559481,0,True
45.233333333333334,-0.23881518840789795,-76.790598154068,1.5351104165227394,0,True
45.266666666666666,-0.354341983795166,-77.02941334247589,1.440673786543112,0,True
45.3,-0.33879446983337397,-77.38375532627106,1.2471762632488288,0,True
45.333333333333336,0.33012035489082336,-77.72254979610443,1.0249156651751787,0,True
45.36666666666667,-0.2263526916503906,-77.39242944121361,0.8091557743205696,0,True
45.4,-0.37843519449234003,-77.618782132864,0.6013933185239736,0,True
45.43333333333333,-0.42271387577056885,-77.99721732735634,0.3892659112865436,0,True
45.46666666666667,-0.3307273387908935,-78.41993120312691,0.16779570732206783,0,True
45.5,-0.2792625427246094,-78.7506585419178,-0.05239779826320852,0,True
45.53333333333333,-0.35894858837127686,-79.02992108464241,-0.2529050047785526,0,True
45.56666666666667,-0.1479482650756836,-79.38886967301369,-0.42400524916931803,0,True
45.6,-0.09042739868164062,-79.53681793808937,-0.5779641062884844,0,True
45.63333333333333,0.03987681865692139,-79.62724533677101,-0.7486680191812407,0,True
45.666666666666664,-0.31873685121536255,-79.58736851811409,-0.9737607843028189,0,True
45.7,-0.2446665167808533,-79.90610536932945,-1.2656628813366624,0,True
45.733333333333334,-0.3798133134841919,-80.1507718861103,-1.5866690250986717,0,True
45.766666666666666,-0.3354061841964721,-80.5305851995945,-1.8447464475602495,0,True
45.8,-0.10211908817291261,-80.86599138379097,-1.9186312401934842,0,True
45.833333333333336,0.8542101383209227,-80.96811047196388,-1.7063796650387848,0,True
45.86666666666667,1.1909308433532715,-80.11390033364296,-1.1769707162912992,0,True
45.9,1.6474099159240725,-78.92296949028969,-0.3983127335994497,0,True
45.93333333333333,1.2712260484695437,-77.27555957436562,0.47640814372201706,0,True
45.96666666666667,0.8311635851860046,-76.00433352589607,1.2612304975199604,0,True
46.0,-0.29375219345092773,-75.17316994071007,1.8047532851248425,0,True
46.03333333333333,-0.23867702484130862,-75.466922134161,2.0398205430096037,0,True
46.06666666666667,-0.3397753238677978,-75.7055991590023,1.9931955001032613,0,True
46.1,-0.23680406808853147,-76.0453744828701,1.755725560118152,0,True
46.13333333333333,-0.35192495584487915,-76.28217855095863,1.4338925387780623,0,True
46.166666666666664,-0.01653122901916504,-76.63410350680351,1.1088609559682205,0,True
46.2,-0.34603142738342285,-76.65063473582268,0.8192884130565756,0,True
46.233333333333334,-0.4157631397247314,-76.9966661632061,0.5685048155700723,0,True
46.266666666666666,-0.4041416645050048,-77.41242930293083,0.34432296613037605,0,True
46.3,-0.3906342387199402,-77.81657096743584,0.1362315416871733,0,True
46.333333333333336,-0.3231115341186524,-78.20720520615578,-0.05940828214008799,0,True
46.36666666666667,-0.3136866092681884,-78.53031674027443,-0.2455024369282338,0,True
46.4,-0.27386438846588135,-78.84400334954262,-0.43358111671426186,0,True
46.43333333333333,-0.3294881582260132,-79.1178677380085,-0.6466927904204998,0,True
46.46666666666667,-0.3324245810508728,-79.44735589623451,-0.9101356862314756,0,True
46.5,-0.28801804780960083,-79.77978047728539,-1.2315890687438982,0,True
46.53333333333333,-0.3311116695404053,-80.06779852509499,-1.5796228938560317,0,True
46.56666666666667,-0.44409686326980585,-80.39891019463539,-1.8739605236295749,0,True
46.6,-0.31212043762207026,-80.8430070579052,-1.9994509223229728,0,True
46.63333333333333,-0.10188007354736328,-81.15512749552727,-1.8465661430426492,0,True
46.666666666666664,1.5229054689407349,-81.25700756907463,-1.3656617402743836,0,True
46.7,1.5629925727844236,-79.7341021001339,-0.607792562939996,0,True
46.733333333333334,1.4757436513900757,-78.17110952734947,0.2758700145548844,0,True
46.766666666666666,0.5930987596511841,-76.6953658759594,1.0839857999383424,0,True
46.8,-0.34654349088668823,-76.10226711630821,1.6420983541099587,0,True
46.833333333333336,-0.4691557884216309,-76.4488106071949,1.8667060195286915,0,True
46.86666666666667,-0.48424208164215093,-76.91796639561653,1.7845719874625128,0,True
46.9,-0.4500435590744018,-77.40220847725868,1.502802394885823,0,True
46.93333333333333,-0.44646829366683966,-77.85225203633308,1.151476727272872,0,True
46.96666666666667,0.1933549642562866,-78.29872032999992,0.830192143935232,0,True
47.0,-0.3148387670516968,-78.10536536574364,0.5816505199624304,0,True
47.03333333333333,-0.30760371685028076,-78.42020413279533,0.39776035629265744,0,True
47.06666666666667,-0.3924037218093872,-78.72780784964561,0.24643150047513485,0,True
47.1,-0.3604874610900879,-79.120211571455,0.09912783909388229,0,True
47.13333333333333,-0.37125623226165766,-79.48069903254509,-0.05599422468356377,0,True
47.166666666666664,-0.2571369409561157,-79.85195526480675,-0.21820327896938324,0,True
47.2,-0.2268516421318054,-80.10909220576286,-0.3874267819876378,0,True
47.233333333333334,-0.2361454963684082,-80.33594384789467,-0.5740959745630954,0,True
47.266666666666666,-0.0221860408782959,-80.57208934426308,-0.7961520754930712,0,True
47.3,-0.31276041269302374,-80.59427538514137,-1.0621627449263469,0,True
47.333333333333336,-0.31426197290420527,-80.9070357978344,-1.3493228161769388,0,True
47.36666666666667,-0.33445966243743896,-81.2212977707386,-1.5914964797957967,0,True
47.4,-0.31760823726654047,-81.55575743317604,-1.6907302142212546,0,True
47.43333333333333,0.27566224336624146,-81.87336567044258,-1.5544087346748312,0,True
47.46666666666667,0.9969815015792848,-81.59770342707634,-1.143947018073214,0,True
47.5,1.668435215950012,-80.60072192549706,-0.5088566078742385,0,True
47.53333333333333,1.3133118152618408,-78.93228670954704,0.21797530180652197,0,True
47.56666666666667,0.48460730910301203,-77.6189748942852,0.8684631667001917,0,True
47.6,-0.322858452796936,-77.13436758518219,1.3084272740150895,0,True
47.63333333333333,-0.4331706762313843,-77.45722603797913,1.4897336103045018,0,True
47.666666666666664,-0.1406238079071045,-77.89039671421051,1.457306851736417,0,True
47.7,-0.18111348152160647,-78.03102052211761,1.3111588026265375,0,True
47.733333333333334,0.1641218662261963,-78.21213400363922,1.1493432493515507,0,True
47.766666666666666,0.43101567029953003,-78.04801213741302,1.024412761491096,0,True
47.8,-0.14723753929138184,-77.6169964671135,0.9331660913744766,0,True
47.833333333333336,-0.3446521759033203,-77.76423400640488,0.8379774499279109,0,True
47.86666666666667,-0.3803225755691528,-78.1088861823082,0.7006057278868373,0,True
47.9,-0.43902397155761713,-78.48920875787735,0.5058634738312833,0,True
47.93333333333333,-0.3824599981307984,-78.92823272943497,0.26353808370637316,0,True
47.96666666666667,-0.24760538339614868,-79.31069272756577,-0.007150389564278978,0,True
48.0,-0.19103044271469113,-79.55829811096191,-0.29619278239851976,0,True
48.03333333333333,-0.3729724287986756,-79.7493285536766,-0.6100667038672954,0,True
48.06666666666667,-0.26395225524902344,-80.12230098247528,-0.9613679554075752,0,True
48.1,-0.27559196949005127,-80.3862532377243,-1.3458800531641788,0,True
48.13333333333333,-0.3323443531990051,-80.66184520721436,-1.7206280821571245,0,True
48.166666666666664,-0.36654442548751826,-80.99418956041336,-1.9983636911735014,0,True
48.2,-0.08390885591506958,-81.36073398590088,-2.0683105134522886,0,True
48.233333333333334,0.6889930367469788,-81.44464284181595,-1.840403743439017,0,True
48.266666666666666,1.5034648180007937,-80.75564980506897,-1.2947935829983048,0,True
48.3,1.60142982006073,-79.25218498706818,-0.5095101601789278,0,True
48.333333333333336,1.2797682285308838,-77.65075516700745,0.3537766114215932,0,True
48.36666666666667,0.31858450174331665,-76.37098693847656,1.1039258922709232,0,True
48.4,0.2879520058631897,-76.05240243673325,1.5893142880164757,0,True
48.43333333333333,-0.4236816763877869,-75.76445043087006,1.7485393453149438,0,True
48.46666666666667,-0.46941184997558594,-76.18813210725784,1.6211489202417377,0,True
48.5,-0.430645763874054,-76.65754395723343,1.3178458751910629,0,True
48.53333333333333,-0.3160532712936401,-77.08818972110748,0.9677341409593844,0,True
48.56666666666667,0.2738647162914276,-77.40424299240112,0.6680711821931159,0,True
48.6,-0.06560182571411133,-77.1303782761097,0.4578158784070336,0,True
48.63333333333333,-0.20317333936691284,-77.1959801018238,0.32224483955279015,0,True
48.666666666666664,-0.3238696455955506,-77.39915344119072,0.21920106847376916,0,True
48.7,-0.304041862487793,-77.72302308678627,0.10814467332243961,0,True
48.733333333333334,-0.29152411222457886,-78.02706494927406,-0.03340613038514134,0,True
48.766666666666666,-0.25017595291137695,-78.31858906149864,-0.20966379845122746,0,True
48.8,-0.19216793775558472,-78.56876501441002,-0.4155693599157079,0,True
48.833333333333336,-0.2242684960365295,-78.7609329521656,-0.644437636894356,0,True
48.86666666666667,-0.28427374362945557,-78.98520144820213,-0.8873326766942257,0,True
48.9,-0.057326316833496094,-79.26947519183159,-1.1246403126918847,0,True
48.93333333333333,-0.30620229244232183,-79.32680150866508,-1.3169062878038318,0,True
48.96666666666667,-0.22825264930725098,-79.6330038011074,-1.404425354148253,0,True
49.0,0.26008760929107666,-79.86125645041466,-1.3218450623327282,0,True
49.03333333333333,0.5467953681945802,-79.60116884112358,-1.0255458262461967,0,True
49.06666666666667,1.0535950660705566,-79.054373472929,-0.5216649126673633,0,True
49.1,0.6981114149093628,-78.00077840685844,0.12141326266332383,0,True
49.13333333333333,1.2920682430267336,-77.30266699194908,0.7862061381628611,0,True
49.166666666666664,0.2654961943626404,-76.01059874892235,1.3421713515752804,0,True
49.2,-0.43882238864898676,-75.74510255455971,1.689458801913781,0,True
49.233333333333334,-0.37497377395629883,-76.1839249432087,1.7896740848386667,0,True
49.266666666666666,-0.3248945474624633,-76.558898717165,1.6691029486516413,0,True
49.3,-0.3869767189025879,-76.88379326462746,1.3959847379189507,0,True
49.333333333333336,-0.41148185729980474,-77.27076998353004,1.0477641541879885,0,True
49.36666666666667,-0.44340336322784424,-77.68225184082985,0.6859084111319577,0,True
49.4,-0.3934633135795593,-78.1256552040577,0.34677589391990177,0,True
49.43333333333333,-0.36372095346450806,-78.51911851763725,0.04648021753826419,0,True
49.46666666666667,-0.33448588848114014,-78.88283947110176,-0.20831845466823168,0,True
49.5,-0.31404387950897217,-79.2173253595829,-0.41237550334854317,0,True
49.53333333333333,-0.39253705739974976,-79.53136923909187,-0.5617552137265258,0,True
49.56666666666667,0.03319758176803589,-79.92390629649162,-0.6610196424422277,0,True
49.6,-0.06668519973754883,-79.89070871472359,-0.7313048387481798,0,True
49.63333333333333,0.07499012351036072,-79.95739391446114,-0.8104603008867686,0,True
49.666666666666664,-0.26635241508483887,-79.88240379095078,-0.9400976665285394,0,True
49.7,-0.2551926374435425,-80.14875620603561,-1.1428412236313643,0,True
49.733333333333334,-0.2390865087509155,-80.40394884347916,-1.40070991092004,0,True
49.766666666666666,-0.2860524654388428,-80.64303535223007,-1.6472557114378084,0,True
49.8,0.05534815788269042,-80.92908781766891,-1.7810699998793056,0,True
49.833333333333336,0.1755579113960266,-80.87373965978622,-1.6991942778682418,0,True
49.86666666666667,1.1179420948028564,-80.6981817483902,-1.339191489293482,0,True
49.9,1.5490978956222532,-79.58023965358734,-0.7118891382456857,0,True
49.93333333333333,1.272589683532715,-78.03114175796509,0.0921909762347194,0,True
49.96666666666667,0.9172606468200682,-76.75855207443237,0.9282752257343988,0,True
50.0,0.3725939095020294,-75.8412914276123,1.6434975988079554,0,True
50.03333333333333,0.6687280535697937,-75.46869751811028,2.122509905789879,0,True
50.06666666666667,-0.2981168031692505,-74.79996946454048,2.314763464138454,0,True
50.1,-0.193658709526062,-75.09808626770973,2.237365346130083,0,True
50.13333333333333,-0.36738371849060053,-75.2917449772358,1.9576186984814052,0,True
50.166666666666664,-0.3324455618858338,-75.6591286957264,1.5646942373798811,0,True
50.2,-0.3889106512069702,-75.99157425761223,1.1413374293673708,0,True
50.233333333333334,-0.3858352899551391,-76.3804849088192,0.7441552536917252,0,True
50.266666666666666,-0.2423146963119507,-76.76632019877434,0.39592436493174993,0,True
