time_s,raw_network_derivative,integrated_bvp,base,segment_id,derivative_supported
0.0,-0.4376264810562134,0.0,,0,True
0.03333333333333333,-0.3822159171104431,-0.4376264810562134,,0,True
0.06666666666666667,-0.32900941371917725,-0.8198423981666565,,0,True
0.1,0.3290390968322754,-1.1488518118858337,,0,True
0.13333333333333333,0.4534679651260376,-0.8198127150535583,,0,True
0.16666666666666666,0.018739700317382812,-0.36634474992752075,,0,True
0.2,0.04179227352142334,-0.34760504961013794,,0,True
0.23333333333333334,-0.17146939039230347,-0.3058127760887146,,0,True
0.26666666666666666,-0.3490045070648193,-0.47728216648101807,,0,True
0.3,-0.37487339973449707,-0.8262866735458374,,0,True
0.3333333333333333,-0.43122267723083496,-1.2011600732803345,,0,True
0.36666666666666664,-0.38796257972717285,-1.6323827505111694,,0,True
0.4,-0.3495324850082398,-2.0203453302383423,,0,True
0.43333333333333335,-0.35033929347991943,-2.369877815246582,,0,True
0.4666666666666667,-0.25949883460998535,-2.7202171087265015,,0,True
0.5,-0.17302387952804565,-2.979715943336487,,0,True
0.5333333333333333,-0.235143780708313,-3.1527398228645325,,0,True
0.5666666666666667,-0.09180933237075806,-3.3878836035728455,,0,True
0.6,0.09783744812011717,-3.4796929359436035,,0,True
0.6333333333333333,-0.06897234916687013,-3.3818554878234863,,0,True
0.6666666666666666,-0.14898574352264404,-3.4508278369903564,,0,True
0.7,-0.3710591793060303,-3.5998135805130005,,0,True
0.7333333333333333,-0.3084585666656494,-3.9708727598190308,,0,True
0.7666666666666667,-0.23261719942092893,-4.27933132648468,,0,True
0.8,-0.4426670074462891,-4.511948525905609,,0,True
0.8333333333333334,-0.4450610876083374,-4.954615533351898,,0,True
0.8666666666666667,-0.4627882242202759,-5.399676620960236,,0,True
0.9,-0.20710957050323486,-5.8624648451805115,,0,True
0.9333333333333333,0.25288498401641846,-6.069574415683746,,0,True
0.9666666666666667,0.2752710282802582,-5.816689431667328,,0,True
1.0,-0.4611114263534546,-5.54141840338707,,0,True
1.0333333333333334,-0.3799474239349365,-6.002529829740524,,0,True
1.0666666666666667,-0.3045724034309387,-6.382477253675461,,0,True
1.1,-0.38427358865737915,-6.6870496571063995,,0,True
1.1333333333333333,-0.33880531787872314,-7.071323245763779,,0,True
1.1666666666666667,-0.43550002574920654,-7.410128563642502,,0,True
1.2,-0.31563234329223633,-7.845628589391708,,0,True
1.2333333333333334,-0.2555294632911682,-8.161260932683945,,0,True
1.2666666666666666,-0.10962212085723877,-8.416790395975113,,0,True
1.3,0.31411343812942505,-8.526412516832352,,0,True
1.3333333333333333,-0.3533515930175781,-8.212299078702927,,0,True
1.3666666666666667,-0.2897000312805176,-8.565650671720505,,0,True
1.4,-0.32169288396835327,-8.855350703001022,,0,True
1.4333333333333333,-0.08324199914932251,-9.177043586969376,,0,True
1.4666666666666666,-0.08459687232971191,-9.260285586118698,,0,True
1.5,-0.011848032474517822,-9.34488245844841,,0,True
1.5333333333333334,-0.2619802951812744,-9.356730490922928,,0,True
1.5666666666666667,0.014512240886688234,-9.618710786104202,,0,True
1.6,-0.07187318801879883,-9.604198545217514,0.720974000590184,0,True
1.6333333333333333,-0.1995423436164856,-9.676071733236313,0.6808086167748086,0,True
1.6666666666666667,-0.3527592420578003,-9.875614076852798,0.5373410708361015,0,True
1.7,-0.3486955165863037,-10.228373318910599,0.3284370801150106,0,True
1.7333333333333334,-0.22416216135025027,-10.577068835496902,0.12247061547815592,0,True
1.7666666666666666,-0.15109550952911377,-10.801230996847153,-0.012269134312767634,0,True
1.8,0.2366885542869568,-10.952326506376266,-0.040522856430408864,0,True
1.8333333333333333,0.14195355772972107,-10.71563795208931,0.023102686160228765,0,True
1.8666666666666667,0.07844090461730957,-10.573684394359589,0.1231229599248804,0,True
1.9,-0.15741229057312012,-10.495243489742279,0.19170122271164178,0,True
1.9333333333333333,-0.29503196477890015,-10.6526557803154,0.17776628424307925,0,True
1.9666666666666666,-0.32016468048095703,-10.9476877450943,0.058501281533317726,0,True
2.0,-0.058788418769836426,-11.267852425575256,-0.17055113917405057,0,True
2.033333333333333,-0.03931945562362671,-11.326640844345093,-0.5130393109547103,0,True
2.066666666666667,-0.2939962148666382,-11.36596029996872,-0.9767921070368636,0,True
2.1,-0.40844464302062994,-11.659956514835358,-1.556748685676655,0,True
2.1333333333333333,-0.2463141679763794,-12.068401157855988,-2.2057787084793463,0,True
2.1666666666666665,-0.3272521495819092,-12.314715325832367,-2.8153694248416516,0,True
2.2,-0.21889984607696533,-12.641967475414276,-3.2249598682562435,0,True
2.2333333333333334,0.10816323757171631,-12.860867321491241,-3.264765862945195,0,True
2.2666666666666666,1.0041126012802124,-12.752704083919525,-2.81928745512579,0,True
2.3,0.6352340579032898,-11.748591482639313,-1.8841128594434469,0,True
2.3333333333333335,1.029166579246521,-11.113357424736023,-0.5870276207395179,0,True
2.3666666666666667,1.0695605278015137,-10.084190845489502,0.8399727308555792,0,True
2.4,0.37918490171432495,-9.014630317687988,2.1284786057371603,0,True
2.433333333333333,0.32930368185043335,-8.635445415973663,3.055114235900602,0,True
2.466666666666667,-0.28984344005584717,-8.30614173412323,3.5046909217297504,0,True
2.5,-0.4586677551269531,-8.595985174179077,3.4906328223138496,0,True
2.533333333333333,-0.43364858627319336,-9.05465292930603,3.1276218929993878,0,True
2.566666666666667,-0.2533974051475525,-9.488301515579224,2.573458490003334,0,True
2.6,-0.3521091938018799,-9.741698920726776,1.969996578052373,0,True
2.6333333333333333,-0.39058470726013184,-10.093808114528656,1.4090470623250035,0,True
2.6666666666666665,-0.46810436248779297,-10.484392821788788,0.9308212896662991,0,True
2.7,-0.46905481815338135,-10.95249718427658,0.543167414526501,0,True
2.7333333333333334,-0.4197549819946289,-11.421552002429962,0.24250919761576326,0,True
2.7666666666666666,-0.2085733413696289,-11.841306984424591,0.02374631750755381,0,True
2.8,-0.22802269458770752,-12.04988032579422,-0.12146870972651788,0,True
2.8333333333333335,-0.25765931606292725,-12.277903020381927,-0.21023235042524926,0,True
2.8666666666666667,-0.34786438941955566,-12.535562336444855,-0.2697091482537952,0,True
2.9,-0.14193129539489746,-12.88342672586441,-0.33160502176137213,0,True
2.933333333333333,-0.3698408007621765,-13.025358021259308,-0.42186210909383615,0,True
2.966666666666667,-0.33841753005981445,-13.395198822021484,-0.5497974807083926,0,True
3.0,-0.3953573107719422,-13.733616352081299,-0.7019728233717334,0,True
3.033333333333333,-0.3268101811408997,-14.128973662853241,-0.8454822607549632,0,True
3.066666666666667,-0.2760573625564575,-14.45578384399414,-0.9413579687258196,0,True
3.1,-0.2619566321372986,-14.731841206550598,-0.9631604054588795,0,True
3.1333333333333333,-0.279478907585144,-14.993797838687897,-0.9123450795492793,0,True
3.1666666666666665,0.05721220374107361,-15.27327674627304,-0.8223274580871929,0,True
3.2,-0.16975235939025876,-15.216064542531967,-0.7467920021763379,0,True
3.2333333333333334,-0.3259474039077759,-15.385816901922226,-0.7345866604300402,0,True
3.2666666666666666,-0.360132098197937,-15.711764305830002,-0.8023081989910517,0,True
3.3,-0.3279111385345459,-16.07189640402794,-0.9203058268853634,0,True
3.3333333333333335,-0.24523693323135376,-16.399807542562485,-1.0221271013639626,0,True
3.3666666666666667,-0.10376715660095213,-16.64504447579384,-1.034324223452151,0,True
3.4,-0.13069868087768552,-16.74881163239479,-0.9123989585677644,0,True
3.433333333333333,0.04098612070083618,-16.879510313272476,-0.665432010904106,0,True
3.466666666666667,0.3348042070865631,-16.83852419257164,-0.3563879248917007,0,True
3.5,0.02162986993789673,-16.503719985485077,-0.07478092523843242,0,True
3.533333333333333,-0.1259782314300537,-16.48209011554718,0.1083258554367615,0,True
3.566666666666667,-0.2922950983047485,-16.608068346977234,0.18029579479196078,0,True
3.6,-0.4096218943595886,-16.900363445281982,0.196701273122306,0,True
3.6333333333333333,-0.44409382343292236,-17.30998533964157,0.2501816732658495,0,True
3.6666666666666665,0.6080247163772583,-17.754079163074493,0.4129269658900516,0,True
3.7,0.5381932258605958,-17.146054446697235,0.6878227028145091,0,True
3.7333333333333334,-0.06952559947967529,-16.60786122083664,1.0021711373066637,0,True
3.7666666666666666,-0.27527666091918945,-16.677386820316315,1.2495862238472892,0,True
3.8,-0.37937319278717047,-16.952663481235504,1.3501350583327452,0,True
3.8333333333333335,-0.37867289781570435,-17.332036674022675,1.2880626015864562,0,True
3.8666666666666667,-0.26671087741851807,-17.71070957183838,1.1077038882049444,0,True
3.9,-0.08709967136383057,-17.977420449256897,0.8784823280923832,0,True
3.933333333333333,-0.186771035194397,-18.064520120620728,0.6558537394901734,0,True
3.966666666666667,-0.3232100009918213,-18.251291155815125,0.4608484349687642,0,True
4.0,-0.294811487197876,-18.574501156806946,0.28438557489738153,0,True
4.033333333333333,-0.260622501373291,-18.869312644004822,0.10710815218928807,0,True
4.066666666666666,-0.3530130386352538,-19.129935145378113,-0.0797930250357678,0,True
4.1,-0.2903693914413452,-19.482948184013367,-0.2635865049959492,0,True
4.133333333333334,-0.236866295337677,-19.773317575454712,-0.41297383587127884,0,True
4.166666666666667,-0.3164898157119751,-20.01018387079239,-0.49278160994444364,0,True
4.2,-0.044820189476013184,-20.326673686504364,-0.483097297802437,0,True
4.233333333333333,-0.0407634973526001,-20.371493875980377,-0.39325543309792155,0,True
4.266666666666667,-0.12295889854431151,-20.412257373332977,-0.2627867571391339,0,True
4.3,-0.2735292911529541,-20.53521627187729,-0.147672222786544,0,True
4.333333333333333,-0.25178998708724976,-20.808745563030243,-0.0983530027268387,0,True
4.366666666666666,-0.27065551280975336,-21.060535550117493,-0.14002566846269546,0,True
4.4,-0.29798078536987305,-21.331191062927246,-0.2631018975824931,0,True
4.433333333333334,-0.4156197309494019,-21.62917184829712,-0.42622887450124186,0,True
4.466666666666667,-0.2814681529998779,-22.04479157924652,-0.5703245361554012,0,True
4.5,-0.29154658317565924,-22.3262597322464,-0.6394395386233293,0,True
4.533333333333333,-0.027655065059661865,-22.617806315422058,-0.6013737111763335,0,True
4.566666666666666,0.17674624919891357,-22.64546138048172,-0.45944090340139904,0,True
4.6,-0.43770098686218256,-22.468715131282806,-0.24992650498368982,0,True
4.633333333333334,-0.3839898109436035,-22.90641611814499,-0.02782516685653534,0,True
4.666666666666667,0.21849936246871948,-23.290405929088593,0.15023459983968185,0,True
4.7,-0.2055453062057495,-23.071906566619873,0.23992760333748736,0,True
4.733333333333333,-0.354579746723175,-23.277451872825623,0.22110694122166125,0,True
4.766666666666667,-0.45677196979522705,-23.632031619548798,0.10738173308236665,0,True
4.8,-0.45373773574829096,-24.088803589344025,-0.053751626033703044,0,True
4.833333333333333,-0.19226062297821045,-24.542541325092316,-0.19601477044471738,0,True
4.866666666666666,-0.06673932075500488,-24.734801948070526,-0.25972341587866465,0,True
4.9,-0.19800448417663571,-24.80154126882553,-0.21437264851736532,0,True
4.933333333333334,-0.32296371459960943,-24.999545753002167,-0.06778334420626779,0,True
4.966666666666667,0.38699913024902344,-25.322509467601776,0.13992069218448966,0,True
5.0,-0.4218440651893616,-24.935510337352753,0.3527518251621897,0,True
5.033333333333333,-0.32140350341796875,-25.357354402542114,0.5188319116833215,0,True
5.066666666666666,-0.11494797468185425,-25.678757905960083,0.6058357922283456,0,True
5.1,-0.31920933723449707,-25.793705880641937,0.6059798169281739,0,True
5.133333333333334,-0.10371828079223633,-26.112915217876434,0.5319701019131047,0,True
5.166666666666667,-0.40557181835174566,-26.21663349866867,0.41008533659285884,0,True
5.2,-0.3973757028579712,-26.622205317020416,0.27359083772880016,0,True
5.233333333333333,-0.3807165026664734,-27.019581019878387,0.15494018782186988,0,True
5.266666666666667,-0.08009731769561769,-27.40029752254486,0.07570453676761839,0,True
5.3,-0.21308678388595584,-27.48039484024048,0.03813356890030146,0,True
5.333333333333333,-0.2988119125366211,-27.693481624126434,0.024724985508074577,0,True
5.366666666666666,-0.24007940292358398,-27.992293536663055,0.0077420294712214925,0,True
5.4,-0.22688424587249753,-28.23237293958664,-0.03617591204163602,0,True
5.433333333333334,-0.26384246349334717,-28.459257185459137,-0.11352342170905531,0,True
5.466666666666667,-0.2996929883956909,-28.723099648952484,-0.20880133034839077,0,True
5.5,-0.36669731140136713,-29.022792637348175,-0.28933612816527055,0,True
5.533333333333333,-0.09969276189804077,-29.389489948749542,-0.31956223758378066,0,True
5.566666666666666,-0.3402787446975708,-29.489182710647583,-0.27966889829139335,0,True
5.6,0.13922151923179624,-29.829461455345154,-0.17950362959236787,0,True
5.633333333333334,-0.0703282356262207,-29.690239936113358,-0.059035817323927785,0,True
5.666666666666667,-0.3451900482177734,-29.76056817173958,0.02707521315092709,0,True
5.7,-0.3031606674194336,-30.10575821995735,0.03361899103605024,0,True
5.733333333333333,-0.4250519275665283,-30.408918887376785,-0.05584098174555267,0,True
5.766666666666667,-0.37896984815597534,-30.833970814943314,-0.22454350605188864,0,True
5.8,-0.16564476490020752,-31.21294066309929,-0.4324191097352639,0,True
5.833333333333333,-0.24550724029541016,-31.378585427999496,-0.6312759512014553,0,True
5.866666666666666,-0.3092793226242065,-31.624092668294907,-0.7761516887039193,0,True
5.9,-0.1341952681541443,-31.933371990919113,-0.8303916943685038,0,True
5.933333333333334,-0.16990268230438235,-32.06756725907326,-0.7685939260716159,0,True
5.966666666666667,-0.2964763641357422,-32.23746994137764,-0.5820960372039036,0,True
6.0,0.22778981924057007,-32.53394630551338,-0.28683823483336707,0,True
6.033333333333333,0.08115237951278688,-32.30615648627281,0.07235134560092613,0,True
6.066666666666666,0.11016690731048585,-32.225004106760025,0.4289494365082044,0,True
6.1,-0.29535686969757075,-32.11483719944954,0.7152652724170127,0,True
6.133333333333334,-0.22278034687042236,-32.41019406914711,0.887017358924173,0,True
6.166666666666667,-0.37917792797088623,-32.63297441601753,0.9373006713931723,0,True
6.2,-0.320180892944336,-33.01215234398842,0.8918391717216206,0,True
6.233333333333333,-0.22987258434295654,-33.332333236932755,0.7899575556450527,0,True
6.266666666666667,-0.2093258500099182,-33.56220582127571,0.6641003910404034,0,True
6.3,-0.2746443748474121,-33.77153167128563,0.52986352988876,0,True
6.333333333333333,-0.5074257850646973,-34.04617604613304,0.38988768717268074,0,True
6.366666666666666,-0.33824229240417475,-34.55360183119774,0.24505727210802875,0,True
6.4,-0.35279309749603266,-34.89184412360191,0.10292478112109905,0,True
6.433333333333334,-0.2708613872528076,-35.244637221097946,-0.021846955787125304,0,True
6.466666666666667,-0.254946231842041,-35.515498608350754,-0.1129681243825416,0,True
6.5,-0.18713641166687014,-35.770444840192795,-0.15889712838517522,0,True
6.533333333333333,-0.3133092522621155,-35.957581251859665,-0.15691170944937854,0,True
6.566666666666666,-0.28295707702636713,-36.27089050412178,-0.11480470970303557,0,True
6.6,-0.24792391061782837,-36.55384758114815,-0.051383307399802035,0,True
6.633333333333334,-0.06361091136932373,-36.801771491765976,0.0047400023652860385,0,True
6.666666666666667,-0.2781594395637513,-36.8653824031353,0.02083919148956395,0,True
6.7,-0.320717453956604,-37.14354184269905,-0.028475883731094775,0,True
6.733333333333333,-0.43148183822631836,-37.464259296655655,-0.14834634235813926,0,True
6.766666666666667,-0.4350438117980957,-37.89574113488197,-0.31741201963400506,0,True
6.8,-0.3906334042549134,-38.33078494668007,-0.4934379701525917,0,True
6.833333333333333,0.07006135582923888,-38.72141835093498,-0.6283166192433359,0,True
6.866666666666666,-0.2904702425003052,-38.65135699510574,-0.6839171979707235,0,True
6.9,-0.2745624780654907,-38.94182723760605,-0.6413831477720696,0,True
6.933333333333334,-0.08948361873626709,-39.21638971567154,-0.5036013699927453,0,True
6.966666666666667,-0.18563055992126465,-39.305873334407806,-0.2951084318382833,0,True
7.0,0.15802007913589478,-39.49150389432907,-0.06047541226884613,0,True
7.033333333333333,-0.24318039417266848,-39.333483815193176,0.14269665085638225,0,True
7.066666666666666,-0.16355574131011963,-39.576664209365845,0.25877428374222305,0,True
7.1,-0.3131887912750244,-39.740219950675964,0.25320787442239034,0,True
7.133333333333334,-0.3152129650115967,-40.05340874195099,0.12714938396479405,0,True
7.166666666666667,-0.4453843832015991,-40.368621706962585,-0.07991882997928473,0,True
7.2,-0.32207316160202026,-40.814006090164185,-0.3018547579055117,0,True
7.233333333333333,-0.3497579097747802,-41.136079251766205,-0.4681543130965613,0,True
7.266666666666667,-0.008868396282196043,-41.485837161540985,-0.5281383278579174,0,True
7.3,0.0030591487884521484,-41.49470555782318,-0.4662705630884231,0,True
7.333333333333333,-0.053925931453704834,-41.49164640903473,-0.30147340977924836,0,True
7.366666666666666,-0.1922406554222107,-41.545572340488434,-0.07231296508852238,0,True
7.4,-0.07067024707794191,-41.737812995910645,0.18137408183553014,0,True
7.433333333333334,-0.19744908809661865,-41.808483242988586,0.42894963334982333,0,True
7.466666666666667,-0.05830651521682739,-42.005932331085205,0.6478972075105236,0,True
7.5,-0.13329857587814334,-42.06423884630203,0.8169136794268965,0,True
7.533333333333333,-0.08170795440673828,-42.197537422180176,0.9125399514815187,0,True
7.566666666666666,-0.31306886672973633,-42.279245376586914,0.914937111407865,0,True
7.6,-0.3850266933441162,-42.59231424331665,0.820287564745615,0,True
7.633333333333334,-0.40646791458129883,-42.97734093666077,0.6506070420427615,0,True
7.666666666666667,-0.4155097007751465,-43.383808851242065,0.4517769085507388,0,True
7.7,-0.37258881330490107,-43.79931855201721,0.27760734201486453,0,True
7.733333333333333,-0.2705640792846679,-44.17190736532211,0.16664856566269207,0,True
7.766666666666667,-0.15017485618591309,-44.44247144460678,0.12372345863835235,0,True
7.8,-0.10166966915130614,-44.592646300792694,0.11706278170273196,0,True
7.833333333333333,-0.42616969347000117,-44.694315969944,0.09436924287895486,0,True
7.866666666666666,-0.43927234411239624,-45.120485663414,0.010161508840643423,0,True
7.9,-0.3743149638175964,-45.5597580075264,-0.15060080550759755,0,True
7.933333333333334,-0.4620034694671631,-45.934072971343994,-0.36512716377793075,0,True
7.966666666666667,-0.4202699661254882,-46.39607644081116,-0.5839711562766564,0,True
8.0,-0.19559568166732788,-46.816346406936646,-0.753501406743139,0,True
8.033333333333333,-0.24074101448059085,-47.01194208860397,-0.8383483365642752,0,True
8.066666666666666,-0.30859410762786865,-47.252683103084564,-0.8340455309444612,0,True
8.1,-0.29634302854537964,-47.56127721071243,-0.7658552342999196,0,True
8.133333333333333,-0.05915367603302002,-47.85762023925781,-0.6760774313071455,0,True
8.166666666666666,-0.1711634397506714,-47.91677391529083,-0.6049044443547658,0,True
8.2,-0.2361100912094116,-48.087937355041504,-0.5704791039487384,0,True
8.233333333333333,-0.3200122117996216,-48.324047446250916,-0.5559399078208608,0,True
8.266666666666667,-0.3246442079544068,-48.64405965805054,-0.5125806732233112,0,True
8.3,-0.4413591027259827,-48.968703866004944,-0.38299247464598374,0,True
8.333333333333334,0.3167357444763183,-49.41006296873093,-0.1360301113284356,0,True
8.366666666666667,0.19991207122802732,-49.09332722425461,0.20601302960813042,0,True
8.4,-0.05167388916015624,-48.89341515302658,0.5680318593900328,0,True
8.433333333333334,-0.27546989917755127,-48.94508904218674,0.8545166328279926,0,True
8.466666666666667,-0.3841657638549805,-49.22055894136429,0.9953892813524812,0,True
8.5,-0.40894931554794306,-49.60472470521927,0.9778056220274837,0,True
8.533333333333333,-0.30769079923629766,-50.01367402076721,0.8473970789189248,0,True
8.566666666666666,-0.4407396912574768,-50.32136482000351,0.6817680806439311,0,True
8.6,-0.25103926658630366,-50.762104511260986,0.5525725214872794,0,True
8.633333333333333,0.08003431558609007,-51.01314377784729,0.4952351363790435,0,True
8.666666666666666,-0.37937462329864496,-50.9331094622612,0.49954112785285276,0,True
8.7,-0.32633435726165777,-51.312484085559845,0.5228839159663397,0,True
8.733333333333333,-0.1892702579498291,-51.6388184428215,0.5157050843520787,0,True
8.766666666666667,-0.42595440149307245,-51.82808870077133,0.4438885494208909,0,True
8.8,-0.42804276943206787,-52.254043102264404,0.29829607703409533,0,True
8.833333333333334,-0.38791775703430176,-52.68208587169647,0.09034386127078882,0,True
8.866666666666667,-0.40825641155242914,-53.070003628730774,-0.1610761727261815,0,True
8.9,-0.4188527464866638,-53.4782600402832,-0.4424241238645431,0,True
8.933333333333334,-0.3692763447761536,-53.89711278676987,-0.7496219285424318,0,True
8.966666666666667,-0.4207452535629272,-54.26638913154602,-1.0801883508094547,0,True
9.0,-0.34497082233428955,-54.68713438510895,-1.4173718660069785,0,True
9.033333333333333,-0.37449336051940924,-55.03210520744324,-1.7158785638814427,0,True
9.066666666666666,-0.2994643449783325,-55.40659856796265,-1.9002405840424068,0,True
9.1,-0.22760105133056638,-55.70606291294098,-1.882674142005497,0,True
9.133333333333333,0.16892623901367188,-55.933663964271545,-1.597847585435084,0,True
9.166666666666666,-0.051902890205383294,-55.76473772525787,-1.0407822097383748,0,True
9.2,1.0296742916107176,-55.81664061546326,-0.28743018197817044,0,True
9.233333333333333,0.27874469757080084,-54.78696632385254,0.5187860554721058,0,True
9.266666666666667,-0.15947526693344116,-54.50822162628174,1.2149263286527923,0,True
9.3,-0.4616613388061523,-54.66769689321518,1.6787355748771562,0,True
9.333333333333334,-0.17443227767944336,-55.12935823202133,1.8675658043463859,0,True
9.366666666666667,-0.27932834625244135,-55.303790509700775,1.816888789751915,0,True
9.4,-0.3090106248855591,-55.58311885595322,1.6074888491396266,0,True
9.433333333333334,-0.30307328701019287,-55.892129480838776,1.3262789644212967,0,True
9.466666666666667,-0.24013859033584592,-56.19520276784897,1.0405301892319776,0,True
9.5,-0.3821135759353638,-56.435341358184814,0.790775369463454,0,True
9.533333333333333,-0.324906587600708,-56.81745493412018,0.5958994575527297,0,True
9.566666666666666,-0.3769466876983642,-57.142361521720886,0.45959464539881634,0,True
9.6,-0.3356216549873352,-57.51930820941925,0.37102721665377314,0,True
9.633333333333333,0.1017729640007019,-57.854929864406586,0.3013758709379165,0,True
9.666666666666666,-0.2752475738525391,-57.753156900405884,0.20511033027350264,0,True
9.7,-0.42557632923126226,-58.02840447425842,0.03352617955268455,0,True
9.733333333333333,-0.3548263311386108,-58.453980803489685,-0.24207598232046743,0,True
9.766666666666667,-0.3147473335266113,-58.808807134628296,-0.6095475155372411,0,True
9.8,-0.3589857816696167,-59.12355446815491,-1.0091738590960073,0,True
9.833333333333334,-0.21503895521163938,-59.482540249824524,-1.345988344063239,0,True
9.866666666666667,-0.26921021938323975,-59.69757920503616,-1.5194679897038816,0,True
9.9,-0.21382176876068112,-59.9667894244194,-1.463431357077384,0,True
9.933333333333334,0.3947787284851074,-60.180611193180084,-1.1825369954662708,0,True
9.966666666666667,0.3674626946449279,-59.78583246469498,-0.7666748483616708,0,True
10.0,0.19395869970321655,-59.41836977005005,-0.3678588318058832,0,True
10.033333333333333,-0.28561234474182134,-59.22441107034683,-0.14132966355729767,0,True
10.066666666666666,-0.3283944129943847,-59.510023415088654,-0.17568965866899786,0,True
10.1,-0.40877282619476313,-59.83841782808304,-0.4474693534278417,0,True
10.133333333333333,-0.3259516954421997,-60.2471906542778,-0.8240863941179315,0,True
10.166666666666666,-0.23006123304367065,-60.57314234972,-1.1149636210395886,0,True
10.2,-0.1901460886001587,-60.80320358276367,-1.1491846221561626,0,True
10.233333333333333,0.8552254438400266,-60.99334967136383,-0.8474222994667729,0,True
10.266666666666667,0.24490055441856382,-60.138124227523804,-0.2570579701060747,0,True
10.3,0.34057533740997314,-59.89322367310524,0.46625536161522935,0,True
10.333333333333334,0.07263761758804321,-59.55264833569527,1.1220520057460066,0,True
10.366666666666667,-0.14208793640136716,-59.48001071810722,1.5428776455692608,0,True
10.4,-0.3227338790893554,-59.62209865450859,1.6519763929442712,0,True
10.433333333333334,-0.492089033126831,-59.944832533597946,1.4798866589529616,0,True
10.466666666666667,-0.38110417127609253,-60.43692156672478,1.1385614668025659,0,True
10.5,-0.40011411905288696,-60.81802573800087,0.7684750677261885,0,True
10.533333333333333,-0.16061341762542725,-61.21813985705376,0.4831987485763215,0,True
10.566666666666666,-0.07310605049133301,-61.378753274679184,0.3342644596893011,0,True
10.6,-0.2560948133468628,-61.45185932517052,0.30780728860247913,0,True
10.633333333333333,-0.2980482578277588,-61.70795413851738,0.34863936319804856,0,True
10.666666666666666,-0.21331387758255005,-62.00600239634514,0.3951147609759969,0,True
10.7,-0.3828788995742798,-62.21931627392769,0.40639960605614384,0,True
10.733333333333333,-0.2881763577461242,-62.60219517350197,0.37207146740185587,0,True
10.766666666666667,-0.36566102504730225,-62.89037153124809,0.3048760590710682,0,True
10.8,-0.2609474062919616,-63.256032556295395,0.22481379934762055,0,True
10.833333333333334,-0.22520738840103147,-63.51697996258736,0.14489124163188521,0,True
10.866666666666667,-0.3435310125350952,-63.74218735098839,0.06593540111591284,0,True
10.9,-0.4759931564331054,-64.08571836352348,-0.018840813817188454,0,True
10.933333333333334,-0.4373656511306763,-64.56171151995659,-0.11534708665903372,0,True
10.966666666666667,-0.2795466780662536,-64.99907717108727,-0.2232994498599446,0,True
11.0,-0.35402828454971313,-65.27862384915352,-0.3363772471342643,0,True
11.033333333333333,-0.37085288763046265,-65.63265213370323,-0.44489659150199967,0,True
11.066666666666666,-0.31311845779418945,-66.0035050213337,-0.5377476313940629,0,True
11.1,-0.30436187982559204,-66.31662347912788,-0.6034407630699523,0,True
11.133333333333333,-0.34845590591430664,-66.62098535895348,-0.6319088286425028,0,True
11.166666666666666,-0.2460528612136841,-66.96944126486778,-0.618034194428267,0,True
11.2,-0.26899802684783936,-67.21549412608147,-0.5660788458495823,0,True
11.233333333333333,-0.17367732524871823,-67.4844921529293,-0.4923230972700903,0,True
11.266666666666667,-0.22586566209793094,-67.65816947817802,-0.4225964957342187,0,True
11.3,-0.17095524072647095,-67.88403514027596,-0.38334416787047115,0,True
11.333333333333334,-0.30078792572021484,-68.05499038100243,-0.3888717806146021,0,True
11.366666666666667,-0.3548405170440673,-68.35577830672264,-0.43111271450583233,0,True
11.4,-0.2740270495414734,-68.71061882376671,-0.478888794758986,0,True
11.433333333333334,-0.25859105587005615,-68.98464587330818,-0.48953271806467674,0,True
11.466666666666667,-0.04870706796646118,-69.24323692917824,-0.4284525814209443,0,True
11.5,0.059547394514083855,-69.2919439971447,-0.2865711165112194,0,True
11.533333333333333,-0.3321536779403687,-69.23239660263062,-0.08605313736314554,0,True
11.566666666666666,0.2603671550750732,-69.56455028057098,0.128565016567522,0,True
11.6,-0.3500676751136779,-69.30418312549591,0.3088360057940731,0,True
11.633333333333333,-0.06964075565338135,-69.65425080060959,0.42145395530045526,0,True
11.666666666666666,-0.41840422153472895,-69.72389155626297,0.45918818184965193,0,True
11.7,-0.28172361850738525,-70.1422957777977,0.4386438139794638,0,True
11.733333333333333,-0.006394505500793458,-70.42401939630508,0.3869318752357056,0,True
11.766666666666667,-0.19647634029388428,-70.43041390180588,0.32656146295685656,0,True
11.8,-0.22991007566452026,-70.62689024209976,0.2686428009262666,0,True
11.833333333333334,-0.23770129680633545,-70.85680031776428,0.21688327347022385,0,True
11.866666666666667,-0.2955344915390014,-71.09450161457062,0.17581318832782153,0,True
11.9,-0.26702570915222174,-71.39003610610962,0.15466306283641218,0,True
11.933333333333334,-0.06263995170593263,-71.65706181526184,0.16369194188957667,0,True
11.966666666666667,-0.15495616197586062,-71.71970176696777,0.2066421274756145,0,True
12.0,-0.06567788124084473,-71.87465792894363,0.2759543663290889,0,True
12.033333333333333,-0.3036031126976014,-71.94033581018448,0.3545460746716201,0,True
12.066666666666666,-0.16935312747955322,-72.24393892288208,0.4223606900512258,0,True
12.1,-0.2266827821731567,-72.41329205036163,0.46298786928839747,0,True
12.133333333333333,-0.16631829738616943,-72.63997483253479,0.4673994745442154,0,True
12.166666666666666,-0.3372658491134643,-72.80629312992096,0.4350031315494958,0,True
12.2,-0.1921969652175903,-73.14355897903442,0.3730722430022955,0,True
12.233333333333333,-0.32547616958618164,-73.33575594425201,0.2945308789982592,0,True
12.266666666666667,-0.3060435056686402,-73.6612321138382,0.21360002257583127,0,True
12.3,-0.3969209194183349,-73.96727561950684,0.13966408161679425,0,True
12.333333333333334,-0.14459294080734253,-74.36419653892517,0.07131996326023969,0,True
12.366666666666667,-0.3227559924125671,-74.50878947973251,-0.005667749968209862,0,True
12.4,-0.31339693069458,-74.83154547214508,-0.11292699043891932,0,True
12.433333333333334,-0.3043836355209351,-75.14494240283966,-0.2669282152022672,0,True
12.466666666666667,-0.42467647790908813,-75.4493260383606,-0.46511116642903577,0,True
12.5,-0.3878630995750427,-75.87400251626968,-0.6788360861964281,0,True
12.533333333333333,-0.2921253442764282,-76.26186561584473,-0.8589931856749575,0,True
12.566666666666666,-0.4252797365188598,-76.55399096012115,-0.9543381054928892,0,True
12.6,-0.31635582447051996,-76.97927069664001,-0.9358024175239282,0,True
12.633333333333333,0.36477741599082947,-77.29562652111053,-0.8149196037476208,0,True
12.666666666666666,-0.1254352927207947,-76.9308491051197,-0.6438119508685372,0,True
12.7,-0.33571481704711914,-77.0562843978405,-0.4918380408101386,0,True
12.733333333333333,-0.33625334501266485,-77.39199921488762,-0.4096792118122397,0,True
12.766666666666667,-0.30553877353668213,-77.72825255990028,-0.40274954568650845,0,True
12.8,-0.320396900177002,-78.03379133343697,-0.4298976282916494,0,True
12.833333333333334,-0.21154749393463135,-78.35418823361397,-0.4262169732642057,0,True
12.866666666666667,0.15158814191818237,-78.5657357275486,-0.3354896274277336,0,True
12.9,-0.07432103157043457,-78.41414758563042,-0.13512414429870362,0,True
12.933333333333334,-0.2654458284378052,-78.48846861720085,0.15671141878872666,0,True
12.966666666666667,-0.07644808292388916,-78.75391444563866,0.490517754701619,0,True
13.0,0.12216323614120482,-78.83036252856255,0.8028825162275561,0,True
13.033333333333333,-0.2953530550003052,-78.70819929242134,1.034981740299439,0,True
13.066666666666666,-0.30675506591796875,-79.00355234742165,1.1490560428406822,0,True
13.1,-0.3324508070945739,-79.31030741333961,1.138989345142703,0,True
13.133333333333333,-0.29141896963119507,-79.64275822043419,1.0303316355425118,0,True
13.166666666666666,-0.5061372518539428,-79.93417719006538,0.8692538550590995,0,True
13.2,-0.2432804107666016,-80.44031444191933,0.7050583985616161,0,True
13.233333333333333,-0.42681878805160517,-80.68359485268593,0.5727582725549122,0,True
13.266666666666667,-0.317812442779541,-81.11041364073753,0.48183987726466365,0,True
13.3,-0.0713266134262085,-81.42822608351707,0.4156673919127441,0,True
13.333333333333334,-0.38741862773895264,-81.49955269694328,0.34252659173950334,0,True
13.366666666666667,-0.41990411281585693,-81.88697132468224,0.23394855449259813,0,True
13.4,-0.45813214778900146,-82.30687543749809,0.0806378465557093,0,True
13.433333333333334,-0.419802188873291,-82.7650075852871,-0.10387865767270991,0,True
13.466666666666667,-0.4099284410476684,-83.18480977416039,-0.29416948458545955,0,True
13.5,-0.21931940317153928,-83.59473821520805,-0.47069958397735134,0,True
13.533333333333333,-0.3761134147644043,-83.8140576183796,-0.6323356706513505,0,True
13.566666666666666,-0.3862441182136536,-84.190171033144,-0.7949672009229324,0,True
13.6,-0.24325913190841672,-84.57641515135765,-0.9763183088490823,0,True
13.633333333333333,-0.36001157760620117,-84.81967428326607,-1.174982656475123,0,True
13.666666666666666,-0.19380652904510498,-85.17968586087227,-1.355043934949121,0,True
13.7,-0.28207504749298096,-85.37349238991737,-1.4465632982867938,0,True
13.733333333333333,-0.30339753627777094,-85.65556743741035,-1.3674506196533378,0,True
13.766666666666667,-0.2641512155532837,-85.95896497368813,-1.0631548071916745,0,True
13.8,0.686971604824066,-86.22311618924141,-0.5481021801897187,0,True
13.833333333333334,0.7450383901596069,-85.53614458441734,0.07705774521608043,0,True
13.866666666666667,-0.17817389965057373,-84.79110619425774,0.6531996491203729,0,True
13.9,-0.2863364219665527,-84.96928009390831,1.0293791830256918,0,True
13.933333333333334,-0.467822790145874,-85.25561651587486,1.1314023656273258,0,True
13.966666666666667,-0.5015218257904053,-85.72343930602074,0.9908130974891548,0,True
14.0,-0.2249159812927246,-86.22496113181114,0.7199298137087048,0,True
14.033333333333333,-0.18595242500305176,-86.44987711310387,0.4520300179926547,0,True
14.066666666666666,-0.026714444160461422,-86.63582953810692,0.28169517253077153,0,True
14.1,-0.03797876834869385,-86.66254398226738,0.23403249073133847,0,True
14.133333333333333,-0.2505711317062378,-86.70052275061607,0.271737698266403,0,True
14.166666666666666,0.016202092170715332,-86.95109388232231,0.32892665081369066,0,True
14.2,-0.2612860202789306,-86.9348917901516,0.3506334809150319,0,True
14.233333333333333,-0.25271785259246826,-87.19617781043053,0.3190272681126638,0,True
14.266666666666667,-0.02679252624511719,-87.448895663023,0.2568689962207151,0,True
14.3,-0.14999687671661377,-87.47568818926811,0.20987771997929255,0,True
14.333333333333334,-0.08941197395324707,-87.62568506598473,0.21853791994842536,0,True
14.366666666666667,0.030627369880676266,-87.71509703993797,0.293042534831496,0,True
14.4,0.06570398807525635,-87.6844696700573,0.40232174081334743,0,True
14.433333333333334,-0.14528590440750122,-87.61876568198204,0.4821962171040191,0,True
14.466666666666667,-0.15960419178009033,-87.76405158638954,0.4600038775435118,0,True
14.5,-0.22666120529174805,-87.92365577816963,0.28553621258065315,0,True
14.533333333333333,-0.38957005739212036,-88.15031698346138,-0.04496781034405752,0,True
14.566666666666666,-0.3548856973648071,-88.5398870408535,-0.48214707889442543,0,True
14.6,-0.5255833864212036,-88.89477273821831,-0.9380002662933175,0,True
14.633333333333333,-0.38264548778533936,-89.42035612463951,-1.31711578778315,0,True
14.666666666666666,0.4975200593471526,-89.80300161242485,-1.5515997182383479,0,True
14.7,-0.08988845348358154,-89.3054815530777,-1.6217500838865178,0,True
14.733333333333333,0.03369152545928955,-89.39537000656128,-1.5505692605729775,0,True
14.766666666666667,-0.0072553157806396484,-89.36167848110199,-1.3776839723541812,0,True
14.8,-0.19897019863128662,-89.36893379688263,-1.1327296218919067,0,True
14.833333333333334,0.5310158133506774,-89.56790399551392,-0.8253436545338138,0,True
14.866666666666667,0.24494290351867673,-89.03688818216324,-0.4530412482364809,0,True
14.9,0.3609897792339325,-88.79194527864456,-0.01574939461816492,0,True
14.933333333333334,-0.025407433509826667,-88.43095549941063,0.47350119778236793,0,True
14.966666666666667,-0.009518563747406006,-88.45636293292046,0.9834064941314364,0,True
15.0,0.6547235250473022,-88.46588149666786,1.4626508033426433,0,True
15.033333333333333,0.22708970308303836,-87.81115797162056,1.8446437232440114,0,True
15.066666666666666,-0.14788818359375,-87.58406826853752,2.0643197968420908,0,True
15.1,-0.40698575973510737,-87.73195645213127,2.0828167573958014,0,True
15.133333333333333,-0.39181065559387207,-88.13894221186638,1.9037005034324816,0,True
15.166666666666666,-0.3263142108917236,-88.53075286746025,1.5675096442565928,0,True
15.2,-0.25444304943084717,-88.85706707835197,1.1287433177750914,0,True
15.233333333333333,-0.36553013324737554,-89.11151012778282,0.6329696736136269,0,True
15.266666666666667,-0.29386103153228765,-89.4770402610302,0.10976825488788301,0,True
15.3,-0.3139711618423462,-89.77090129256248,-0.41605592461411955,0,True
15.333333333333334,-0.4358543157577514,-90.08487245440483,-0.9058685949998031,0,True
15.366666666666667,-0.41100513935089106,-90.52072677016258,-1.297564176150202,0,True
15.4,-0.14382898807525635,-90.93173190951347,-1.5165157740425517,0,True
15.433333333333334,0.04841047525405884,-91.07556089758873,-1.5055958495084831,0,True
15.466666666666667,0.4800000190734863,-91.02715042233467,-1.2582681459305598,0,True
15.5,0.2791983187198639,-90.54715040326118,-0.8335409711240981,0,True
15.533333333333333,0.199151873588562,-90.26795208454132,-0.3411083296391251,0,True
15.566666666666666,0.1276399493217468,-90.06880021095276,0.09664656275747237,0,True
15.6,-0.4260528683662414,-89.94116026163101,0.3853501843039352,0,True
15.633333333333333,-0.1534551978111267,-90.36721312999725,0.48192024003234296,0,True
15.666666666666666,0.019787669181823734,-90.52066832780838,0.3934416742353485,0,True
15.7,-0.11233103275299074,-90.50088065862656,0.16085173640935782,0,True
15.733333333333333,-0.36364632844924927,-90.61321169137955,-0.15692524830085333,0,True
15.766666666666667,-0.3615926504135132,-90.9768580198288,-0.49139751433980566,0,True
15.8,-0.5287501811981201,-91.33845067024231,-0.7712958400446884,0,True
15.833333333333334,0.18080192804336548,-91.86720085144043,-0.9353447959175556,0,True
15.866666666666667,0.3907504379749298,-91.68639892339706,-0.9487070660649283,0,True
15.9,-0.28340214490890503,-91.29564848542213,-0.8126729461354076,0,True
15.933333333333334,-0.0820378065109253,-91.57905063033104,-0.5620613193705283,0,True
15.966666666666667,-0.3292729854583741,-91.66108843684196,-0.2562340407141403,0,True
16.0,0.6987991333007812,-91.99036142230034,0.029705022172280854,0,True
16.033333333333335,0.08373495936393738,-91.29156228899956,0.21835340910513024,0,True
16.066666666666666,-0.33685731887817383,-91.20782732963562,0.2564791638090122,0,True
16.1,-0.40299540758132935,-91.5446846485138,0.14746402338863113,0,True
16.133333333333333,-0.35186827182769775,-91.94768005609512,-0.03418178796438186,0,True
16.166666666666668,-0.23496150970458982,-92.29954832792282,-0.16501071596999337,0,True
16.2,0.13376671075820923,-92.53450983762741,-0.12591248782172323,0,True
16.233333333333334,0.19101035594940183,-92.4007431268692,0.14051983848219587,0,True
16.266666666666666,0.28128319978713984,-92.2097327709198,0.5990242243372614,0,True
16.3,0.6028519868850708,-91.92844957113266,1.1338271678828231,0,True
16.333333333333332,-0.31763863563537603,-91.32559758424759,1.5984953992537156,0,True
16.366666666666667,-0.3232096433639526,-91.64323621988297,1.878195305765671,0,True
16.4,-0.3223060369491577,-91.96644586324692,1.931886989680414,0,True
16.433333333333334,-0.22663283348083493,-92.28875190019608,1.7944823296441939,0,True
16.466666666666665,-0.194205641746521,-92.51538473367691,1.5443500624910138,0,True
16.5,-0.37276792526245117,-92.70959037542343,1.2597619001490588,0,True
16.533333333333335,-0.1992442607879639,-93.08235830068588,0.9872024367395023,0,True
16.566666666666666,-0.2343733310699463,-93.28160256147385,0.7319253422003105,0,True
16.6,-0.3233480453491211,-93.51597589254379,0.46876077603006494,0,True
16.633333333333333,-0.46879291534423834,-93.83932393789291,0.16363577103832802,0,True
16.666666666666668,-0.3946672677993774,-94.30811685323715,-0.20632368209644572,0,True
16.7,-0.35041868686676025,-94.70278412103653,-0.6430354057586513,0,True
16.733333333333334,-0.4521446824073791,-95.05320280790329,-1.1292224169051073,0,True
16.766666666666666,-0.3793359398841858,-95.50534749031067,-1.6362302020237856,0,True
16.8,-0.31842613220214844,-95.88468343019485,-2.1310912066952765,0,True
16.833333333333332,-0.13466280698776245,-96.203109562397,-2.5785631119199013,0,True
16.866666666666667,-0.2610149383544922,-96.33777236938477,-2.9376762298256702,0,True
16.9,-0.08788281679153442,-96.59878730773926,-3.1567249881060984,0,True
16.933333333333334,0.215523898601532,-96.68667012453079,-3.1736728065876467,0,True
16.966666666666665,0.5065364241600037,-96.47114622592926,-2.9271659364410048,0,True
17.0,0.06528088450431824,-95.96460980176926,-2.3776222658730264,0,True
17.033333333333335,0.5944550037384033,-95.89932891726494,-1.5329368429759316,0,True
17.066666666666666,0.8240958452224731,-95.30487391352654,-0.4694729308760732,0,True
17.1,1.1838016510009766,-94.48077806830406,0.6659625669067202,0,True
17.133333333333333,0.5360273718833923,-93.29697641730309,1.6864032622837704,0,True
17.166666666666668,0.06938472390174866,-92.7609490454197,2.4237933631728423,0,True
17.2,-0.3436284065246582,-92.69156432151794,2.789503124667336,0,True
17.233333333333334,-0.1357870101928711,-93.0351927280426,2.801561372787669,0,True
17.266666666666666,-0.07552736997604372,-93.17097973823547,2.563706662549463,0,True
17.3,0.02587014436721802,-93.24650710821152,2.2120121581909897,0,True
17.333333333333332,-0.20894008874893188,-93.2206369638443,1.8606797482878683,0,True
17.366666666666667,-0.06463199853897095,-93.42957705259323,1.5708560869994377,0,True
17.4,-0.23169863224029535,-93.4942090511322,1.34743451760548,0,True
17.433333333333334,-0.06556105613708496,-93.7259076833725,1.1552115154298048,0,True
17.466666666666665,-0.0851210355758667,-93.79146873950958,0.9428051850685609,0,True
17.5,-0.35826522111892695,-93.87658977508545,0.6656641522416087,0,True
17.533333333333335,-0.38334763050079346,-94.23485499620438,0.30257510604211374,0,True
17.566666666666666,-0.11963778734207152,-94.61820262670517,-0.13753462046833712,0,True
17.6,-0.3986088633537292,-94.73784041404724,-0.6179295047772678,0,True
17.633333333333333,0.21989843249320984,-95.13644927740097,-1.0814100688745492,0,True
17.666666666666668,-0.5568026304244995,-94.91655084490776,-1.4597278935401676,0,True
17.7,-0.46351408958435064,-95.47335347533226,-1.6873339244368564,0,True
17.733333333333334,0.1900896430015564,-95.93686756491661,-1.7231246897536818,0,True
17.766666666666666,0.24482250213623047,-95.74677792191505,-1.5747849370838825,0,True
17.8,0.17516344785690305,-95.50195541977882,-1.30780826941979,0,True
17.833333333333332,0.6595374345779419,-95.32679197192192,-1.0229903844419377,0,True
17.866666666666667,-0.20143109560012815,-94.66725453734398,-0.8065374163150528,0,True
17.9,-0.43546766042709345,-94.8686856329441,-0.6800583449760208,0,True
17.933333333333334,-0.42307686805725103,-95.3041532933712,-0.5853423809192533,0,True
17.966666666666665,0.016097545623779297,-95.72723016142845,-0.42129018290186715,0,True
18.0,0.8139272928237915,-95.71113261580467,-0.11404991054182129,0,True
18.033333333333335,0.5555754899978638,-94.89720532298088,0.32658162288460413,0,True
18.066666666666666,-0.1092538833618164,-94.34162983298302,0.8041018665707146,0,True
18.1,-0.09065210819244383,-94.45088371634483,1.1858436478313386,0,True
18.133333333333333,-0.43849265575408936,-94.54153582453728,1.370068814140208,0,True
18.166666666666668,-0.20290607213974,-94.98002848029137,1.3277674830014508,0,True
18.2,-0.3442811965942383,-95.1829345524311,1.1017624724064579,0,True
18.233333333333334,-0.4070231318473816,-95.52721574902534,0.7735451711314508,0,True
18.266666666666666,-0.2526326179504395,-95.93423888087273,0.4213160053367728,0,True
18.3,-0.37741661071777344,-96.18687149882317,0.09043664715816521,0,True
18.333333333333332,-0.2132136821746826,-96.56428810954094,-0.2125710068235463,0,True
18.366666666666667,-0.39221638441085804,-96.77750179171562,-0.5032298508661296,0,True
18.4,-0.3176794052124023,-97.16971817612648,-0.7905243173360061,0,True
18.433333333333334,-0.35046362876892095,-97.48739758133888,-1.0528191214326938,0,True
18.466666666666665,-0.3555129766464233,-97.8378612101078,-1.2324194287119103,0,True
18.5,-0.1369084119796753,-98.19337418675423,-1.2538869463600544,0,True
18.533333333333335,0.2958549857139588,-98.3302825987339,-1.0589414144730065,0,True
18.566666666666666,-0.034152865409851074,-98.03442761301994,-0.6410250034098676,0,True
18.6,0.02313542366027832,-98.0685804784298,-0.06160912127475837,0,True
18.633333333333333,0.8781736493110657,-98.04544505476952,0.5611890108892755,0,True
18.666666666666668,-0.3013792037963868,-97.16727140545845,1.0895233193324108,0,True
18.7,-0.4463621377944947,-97.46865060925484,1.414865515673427,0,True
18.733333333333334,-0.39923590421676636,-97.91501274704933,1.4960916994693352,0,True
18.766666666666666,-0.36614871025085444,-98.3142486512661,1.365850464308241,0,True
18.8,-0.32618463039398193,-98.68039736151695,1.1042632841037787,0,True
18.833333333333332,-0.19659000635147092,-99.00658199191093,0.7994050519117148,0,True
18.866666666666667,-0.46357107162475586,-99.2031719982624,0.516783263834422,0,True
18.9,-0.369687557220459,-99.66674306988716,0.2877135088233021,0,True
18.933333333333334,-0.3452078104019165,-100.03643062710762,0.11287669558175054,0,True
18.966666666666665,-0.4160857796669006,-100.38163843750954,-0.027955497886198607,0,True
19.0,-0.2932252883911132,-100.79772421717644,-0.16586064127115127,0,True
19.033333333333335,-0.2774649858474732,-101.09094950556755,-0.33280392011005616,0,True
19.066666666666666,-0.33092802762985224,-101.36841449141502,-0.5499056468783575,0,True
19.1,-0.3583911657333374,-101.69934251904488,-0.8142518223047077,0,True
19.133333333333333,-0.32283711433410645,-102.05773368477821,-1.0893465900723422,0,True
19.166666666666668,-0.37771385908126826,-102.38057079911232,-1.307174777064697,0,True
19.2,-0.28745555877685547,-102.75828465819359,-1.3870946703112919,0,True
19.233333333333334,-0.09693044424057005,-103.04574021697044,-1.2686562386128288,0,True
19.266666666666666,0.33007258176803583,-103.14267066121101,-0.9454282678748783,0,True
19.3,0.283488392829895,-102.81259807944298,-0.48110076330140283,0,True
19.333333333333332,-0.055606007575988776,-102.52910968661308,0.0055883241619288865,0,True
19.366666666666667,-0.04783737659454346,-102.58471569418907,0.383852020685651,0,True
19.4,-0.3079900145530701,-102.63255307078362,0.5616223330062092,0,True
19.433333333333334,-0.36271172761917114,-102.94054308533669,0.5198509769758144,0,True
19.466666666666665,-0.36232924461364746,-103.30325481295586,0.3159392056198281,0,True
19.5,-0.4096406698226928,-103.6655840575695,0.05684077494749251,0,True
19.533333333333335,-0.18214279413223267,-104.0752247273922,-0.14536485074560251,0,True
19.566666666666666,-0.3226125240325928,-104.25736752152443,-0.21662665297495762,0,True
19.6,0.23613420128822327,-104.57998004555702,-0.14518578848038383,0,True
19.633333333333333,0.20382583141326904,-104.3438458442688,0.023124170037898007,0,True
19.666666666666668,-0.3627045750617981,-104.14002001285553,0.2159738804966321,0,True
19.7,-0.3888404369354247,-104.50272458791733,0.3746758179361785,0,True
19.733333333333334,-0.34486722946166987,-104.89156502485275,0.47862654025479906,0,True
19.766666666666666,-0.20314013957977298,-105.23643225431442,0.5399118387802174,0,True
19.8,0.2514169216156006,-105.4395723938942,0.5770967584517627,0,True
19.833333333333332,-0.3315808176994324,-105.1881554722786,0.5922667196129587,0,True
19.866666666666667,-0.34438037872314453,-105.51973628997803,0.5689824326266527,0,True
19.9,-0.35674184560775757,-105.86411666870117,0.48880646912749043,0,True
19.933333333333334,-0.4508551359176637,-106.22085851430893,0.35000370825212024,0,True
19.966666666666665,-0.44136637449264526,-106.6717136502266,0.17416267672790664,0,True
20.0,-0.25780338048934937,-107.11308002471924,-0.0021320785224483796,0,True
20.033333333333335,-0.341122031211853,-107.37088340520859,-0.14378438902437474,0,True
20.066666666666666,-0.2763645648956299,-107.71200543642044,-0.23163973696375878,0,True
20.1,-0.30352163314819336,-107.98837000131607,-0.26760168182224287,0,True
20.133333333333333,-0.14626258611679077,-108.29189163446426,-0.2692213609313218,0,True
20.166666666666668,-0.37284696102142334,-108.43815422058105,-0.25768711674769895,0,True
20.2,-0.3104456067085266,-108.81100118160248,-0.2457482424031414,0,True
20.233333333333334,-0.3597522377967834,-109.121446788311,-0.2322000744476482,0,True
20.266666666666666,-0.2623903751373291,-109.48119902610779,-0.20610808418769772,0,True
20.3,-0.20460605621337893,-109.74358940124512,-0.15770233803878772,0,True
20.333333333333332,-0.11473488807678223,-109.9481954574585,-0.0882061934453129,0,True
20.366666666666667,-0.29836738109588623,-110.06293034553528,-0.011751220486658906,0,True
20.4,-0.2850153446197509,-110.36129772663116,0.05147003200099147,0,True
20.433333333333334,-0.29562801122665405,-110.64631307125092,0.0852886647547514,0,True
20.466666666666665,-0.38075238466262823,-110.94194108247757,0.08381476944159186,0,True
20.5,-0.31672465801239014,-111.3226934671402,0.05073761779682086,0,True
20.533333333333335,-0.2311421632766724,-111.63941812515259,-0.005944642002887968,0,True
20.566666666666666,-0.21676325798034665,-111.87056028842926,-0.07820096379714638,0,True
20.6,-0.32471406459808344,-112.0873235464096,-0.15679361950127946,0,True
20.633333333333333,-0.028722763061523438,-112.41203761100769,-0.22527529797767076,0,True
20.666666666666668,-0.3931177854537964,-112.44076037406921,-0.25518666926269484,0,True
20.7,-0.2588490247726441,-112.83387815952301,-0.20996113697934563,0,True
20.733333333333334,-0.1388838291168213,-113.09272718429565,-0.06093050472351911,0,True
20.766666666666666,-0.010549664497375488,-113.23161101341248,0.19025956033433078,0,True
20.8,0.75481116771698,-113.24216067790985,0.4978801915277613,0,True
20.833333333333332,-0.17308449745178223,-112.48734951019287,0.7821271532323815,0,True
20.866666666666667,-0.34745156764984125,-112.66043400764465,0.9629692092288096,0,True
20.9,-0.4226508140563965,-113.0078855752945,0.9970276425797735,0,True
20.933333333333334,-0.24922049045562744,-113.43053638935089,0.8912152233853744,0,True
20.966666666666665,0.0023499727249145508,-113.67975687980652,0.6855071958701343,0,True
21.0,-0.08772027492523192,-113.6774069070816,0.4216854061533659,0,True
21.033333333333335,-0.30263251066207886,-113.76512718200684,0.1217361093895914,0,True
21.066666666666666,-0.3736850619316101,-114.06775969266891,-0.2134932485850495,0,True
21.1,-0.3607431054115295,-114.44144475460052,-0.5915969998578674,0,True
21.133333333333333,-0.344524085521698,-114.80218786001205,-1.0139214679311588,0,True
21.166666666666668,-0.27804815769195557,-115.14671194553375,-1.4653660347140334,0,True
21.2,0.1857681572437286,-115.42476010322571,-1.9078088957056982,0,True
21.233333333333334,-0.018546104431152347,-115.23899194598198,-2.274849282350021,0,True
21.266666666666666,0.026422381401062015,-115.25753805041313,-2.47122135114036,0,True
21.3,-0.4377316236495971,-115.23111566901207,-2.387759237687181,0,True
21.333333333333332,0.7496622800827025,-115.66884729266167,-1.9409413168174026,0,True
21.366666666666667,0.8575572371482848,-114.91918501257896,-1.1277109781068138,0,True
21.4,1.0718910694122312,-114.06162777543068,-0.0637764834869315,0,True
21.433333333333334,0.763065755367279,-112.98973670601845,1.027886323051498,0,True
21.466666666666665,0.05726650357246399,-112.22667095065117,1.8841685187394355,0,True
21.5,-0.1932252645492554,-112.1694044470787,2.295587478013764,0,True
21.533333333333335,-0.3089219331741333,-112.36262971162796,2.182719453361722,0,True
21.566666666666666,-0.19827330112457273,-112.6715516448021,1.624077461325709,0,True
21.6,-0.4248974323272705,-112.86982494592667,0.8302851444888418,0,True
21.633333333333333,-0.4678813219070434,-113.29472237825394,0.07867981207143454,0,True
21.666666666666668,-0.07884806394577028,-113.76260370016098,-0.37140809271184433,0,True
21.7,0.3203591108322144,-113.84145176410675,-0.3606323416653042,0,True
21.733333333333334,0.8668201565742493,-113.52109265327454,0.11674551536500194,0,True
21.766666666666666,0.8149932622909545,-112.65427249670029,0.9110110234749412,0,True
21.8,0.4602391123771668,-111.83927923440933,1.7730539434856774,0,True
21.833333333333332,0.12322640419006346,-111.37904012203217,2.44666931008259,0,True
21.866666666666667,-0.2709648609161377,-111.2558137178421,2.7554043904174788,0,True
21.9,-0.4233492016792298,-111.52677857875824,2.645613821073971,0,True
21.933333333333334,-0.37653172016143804,-111.95012778043747,2.172694103528408,0,True
21.966666666666665,-0.36390960216522217,-112.32665950059891,1.4480691313180505,0,True
22.0,-0.4640963077545166,-112.69056910276413,0.58199655304776,0,True
22.033333333333335,-0.44609212875366216,-113.15466541051865,-0.3469054709664143,0,True
22.066666666666666,-0.31005907058715815,-113.60075753927231,-1.2849225959030786,0,True
22.1,-0.41483223438262934,-113.91081660985947,-2.1716258610386463,0,True
22.133333333333333,-0.2693302631378174,-114.3256488442421,-2.909651580846498,0,True
22.166666666666668,-0.22347152233123777,-114.59497910737991,-3.3626567961641807,0,True
22.2,-0.04790937900543213,-114.81845062971115,-3.3945321344901402,0,True
22.233333333333334,0.623555064201355,-114.86636000871658,-2.9386685162245496,0,True
22.266666666666666,1.1857717037200926,-114.24280494451523,-2.061751036068346,0,True
22.3,1.494867205619812,-113.05703324079514,-0.9780102503098884,0,True
22.333333333333332,0.07597854733467102,-111.56216603517532,0.009935236532261428,0,True
22.366666666666667,-0.1790559887886047,-111.48618748784065,0.6234775943295155,0,True
22.4,-0.3062461614608765,-111.66524347662926,0.7161771019260984,0,True
22.433333333333334,-0.3931035995483398,-111.97148963809013,0.3223601552632392,0,True
22.466666666666665,-0.3134035468101502,-112.36459323763847,-0.3701693577970465,0,True
22.5,-0.135725736618042,-112.67799678444862,-1.0989981420828083,0,True
22.533333333333335,-0.06682997941970825,-112.81372252106667,-1.617159453686683,0,True
22.566666666666666,0.4168469309806824,-112.88055250048637,-1.7609738004154885,0,True
22.6,0.6348015069961547,-112.46370556950569,-1.4793112729563342,0,True
22.633333333333333,0.3438129723072052,-111.82890406250954,-0.8253877633345581,0,True
22.666666666666668,0.3245135545730591,-111.48509109020233,0.07460246548601954,0,True
22.7,0.673013925552368,-111.16057753562927,1.057387313567706,0,True
22.733333333333334,0.5606718063354492,-110.4875636100769,1.9525088101904278,0,True
22.766666666666666,0.34939777851104736,-109.92689180374146,2.6088028129015357,0,True
22.8,-0.11181509494781493,-109.57749402523041,2.9230044210847925,0,True
22.833333333333332,-0.4853631258010864,-109.68930912017822,2.8657283366791955,0,True
22.866666666666667,-0.5976122617721558,-110.17467224597931,2.49054060290604,0,True
22.9,-0.4807825088500976,-110.77228450775146,1.9158045495192582,0,True
22.933333333333334,-0.37068086862564087,-111.25306701660156,1.2841743375616257,0,True
22.966666666666665,-0.4470062851905822,-111.6237478852272,0.7178817431674586,0,True
23.0,-0.3154178857803345,-112.07075417041779,0.2887324780049052,0,True
23.033333333333335,-0.33424544334411627,-112.38617205619812,0.011406128431438447,0,True
23.066666666666666,-0.18371880054473877,-112.72041749954224,-0.1431485604554367,0,True
23.1,-0.4110296964645386,-112.90413630008698,-0.22399604155282815,0,True
23.133333333333333,-0.30351883172988886,-113.31516599655151,-0.2771434373070472,0,True
23.166666666666668,-0.2965516448020935,-113.6186848282814,-0.3314710055012835,0,True
23.2,-0.34016525745391846,-113.9152364730835,-0.39644701100625757,0,True
23.233333333333334,-0.3699226975440979,-114.25540173053741,-0.4685096834958768,0,True
23.266666666666666,-0.3960758447647095,-114.62532442808151,-0.5402650087206381,0,True
23.3,-0.22311151027679446,-115.02140027284622,-0.6073024227378134,0,True
23.333333333333332,-0.4008074998855591,-115.24451178312302,-0.66943914904029,0,True
23.366666666666667,-0.3764455318450928,-115.64531928300858,-0.7262018570540949,0,True
23.4,-0.319670557975769,-116.02176481485367,-0.770209111660629,0,True
23.433333333333334,-0.38153922557830805,-116.34143537282944,-0.7841315958736772,0,True
23.466666666666665,-0.2500663995742798,-116.72297459840775,-0.7449131332420084,0,True
23.5,-0.22476732730865479,-116.97304099798203,-0.6345437656846652,0,True
23.533333333333335,-0.31240785121917725,-117.19780832529068,-0.45279710432382486,0,True
23.566666666666666,-0.037729382514953606,-117.51021617650986,-0.2255518375227624,0,True
23.6,-0.17995250225067136,-117.54794555902481,-0.003026135985421009,0,True
23.633333333333333,-0.22056782245635984,-117.72789806127548,0.15433878283447836,0,True
23.666666666666668,-0.4237350225448608,-117.94846588373184,0.1984654988204766,0,True
23.7,-0.4098328351974488,-118.3722009062767,0.1146202540099523,0,True
23.733333333333334,-0.5079965591430665,-118.78203374147415,-0.07029276961310649,0,True
23.766666666666666,-0.4613878726959228,-119.29003030061722,-0.29716425008128106,0,True
23.8,-0.30630773305892944,-119.75141817331314,-0.4977107161985697,0,True
23.833333333333332,-0.13854825496673587,-120.05772590637207,-0.6199839005379012,0,True
23.866666666666667,-0.22019433975219727,-120.1962741613388,-0.6440361241889843,0,True
23.9,-0.20444488525390625,-120.416468501091,-0.5811691842676229,0,True
23.933333333333334,0.024896085262298587,-120.62091338634491,-0.4596413050203001,0,True
23.966666666666665,-0.2609991431236267,-120.59601730108261,-0.3063458009820487,0,True
24.0,-0.2485504150390625,-120.85701644420624,-0.1345496437603196,0,True
24.033333333333335,0.08433356881141663,-121.1055668592453,0.056275660875208,0,True
24.066666666666666,-0.1410169005393982,-121.02123329043388,0.26956647855928023,0,True
24.1,-0.13530731201171875,-121.16225019097328,0.49771652706088815,0,True
24.133333333333333,0.15076881647109988,-121.297557502985,0.7145703443656566,0,True
24.166666666666668,-0.30398809909820557,-121.1467886865139,0.8794346337828988,0,True
24.2,-0.1740169525146484,-121.4507767856121,0.9513423686786563,0,True
24.233333333333334,-0.3619006872177124,-121.62479373812675,0.9066746421974956,0,True
24.266666666666666,-0.32113778591156006,-121.98669442534447,0.7510110672817338,0,True
24.3,-0.43898570537567133,-122.30783221125603,0.5192518497091863,0,True
24.333333333333332,-0.43247509002685547,-122.7468179166317,0.263966179107567,0,True
24.366666666666667,-0.2572035193443298,-123.17929300665855,0.0369571112713837,0,True
24.4,-0.26742297410964966,-123.43649652600288,-0.1278541966285783,0,True
24.433333333333334,-0.13218724727630615,-123.70391950011253,-0.22208512977262557,0,True
24.466666666666665,-0.16283929347991943,-123.83610674738884,-0.2575123158185965,0,True
24.5,-0.3008377552032471,-123.99894604086876,-0.25175297062308555,0,True
24.533333333333335,-0.3655891418457031,-124.299783796072,-0.21510200130279145,0,True
24.566666666666666,-0.36705732345581055,-124.66537293791771,-0.1481434767624808,0,True
24.6,0.14732742309570312,-125.03243026137352,-0.05148102510748587,0,True
24.633333333333333,-0.10869795083999634,-124.88510283827782,0.06194575346144335,0,True
24.666666666666668,-0.19449251890182498,-124.99380078911781,0.16473438882385466,0,True
24.7,-0.4236880540847779,-125.18829330801964,0.22660994397967738,0,True
24.733333333333334,-0.28545475006103516,-125.61198136210442,0.23048151281722945,0,True
24.766666666666666,-0.3469722270965576,-125.89743611216545,0.18072273386468188,0,True
24.8,-0.24610191583633426,-126.24440833926201,0.0994746857423195,0,True
24.833333333333332,-0.2154909372329712,-126.49051025509834,0.015847516053072927,0,True
24.866666666666667,-0.3483708500862121,-126.70600119233131,-0.04455288031130868,0,True
24.9,-0.11284053325653078,-127.05437204241753,-0.06564083305693738,0,True
24.933333333333334,-0.34027737379074097,-127.16721257567406,-0.0426592519493463,0,True
24.966666666666665,-0.17157816886901855,-127.5074899494648,0.018015997954923993,0,True
25.0,-0.12593412399291992,-127.67906811833382,0.09962686568305341,0,True
25.033333333333335,-0.15194046497344973,-127.80500224232674,0.1767954578970403,0,True
25.066666666666666,-0.3309062719345092,-127.95694270730019,0.2196937556817145,0,True
25.1,-0.21741390228271484,-128.2878489792347,0.200621488689429,0,True
25.133333333333333,-0.3538525104522705,-128.5052628815174,0.10105634415157519,0,True
25.166666666666668,-0.35651493072509766,-128.85911539196968,-0.08259242210779301,0,True
25.2,-0.2872248888015747,-129.21563032269478,-0.33495355894905376,0,True
25.233333333333334,-0.30465710163116455,-129.50285521149635,-0.6195885271636068,0,True
25.266666666666666,-0.16683971881866452,-129.80751231312752,-0.8800877594912939,0,True
25.3,-0.2552611827850342,-129.97435203194618,-1.047066111893444,0,True
25.333333333333332,-0.3668898940086365,-130.22961321473122,-1.0540239568975016,0,True
25.366666666666667,0.3366490602493286,-130.59650310873985,-0.8616540558003573,0,True
25.4,0.2939387559890747,-130.25985404849052,-0.48235071544631397,0,True
25.433333333333334,0.13046163320541382,-129.96591529250145,0.009692801877205502,0,True
25.466666666666665,0.08185386657714844,-129.83545365929604,0.4931579859237151,0,True
25.5,-0.04330372810363769,-129.7535997927189,0.8357152280088062,0,True
25.533333333333335,-0.1097748875617981,-129.79690352082253,0.9374281268934077,0,True
25.566666666666666,-0.46700775623321533,-129.90667840838432,0.7658303339312655,0,True
25.6,-0.3495731353759765,-130.37368616461754,0.37079092254721924,0,True
25.633333333333333,-0.420466423034668,-130.72325929999352,-0.1271752797184336,0,True
25.666666666666668,-0.383741557598114,-131.14372572302818,-0.5735824359278892,0,True
25.7,-0.19328093528747556,-131.5274672806263,-0.8310929928806847,0,True
25.733333333333334,0.12206053733825681,-131.72074821591377,-0.8278606431682765,0,True
25.766666666666666,0.2819654941558838,-131.59868767857552,-0.5839485632452424,0,True
25.8,0.3664994537830352,-131.31672218441963,-0.2021836063615079,0,True
25.833333333333332,-0.17061400413513184,-130.9502227306366,0.175719447031139,0,True
25.866666666666667,-0.15554988384246823,-131.12083673477173,0.4289162744359333,0,True
25.9,-0.11520493030548093,-131.2763866186142,0.5047802517353562,0,True
25.933333333333334,-0.3003801107406617,-131.39159154891968,0.4327321589597552,0,True
25.966666666666665,-0.3765603303909301,-131.69197165966034,0.30155491229927095,0,True
26.0,0.10607719421386717,-132.06853199005127,0.2133379273407047,0,True
26.033333333333335,-0.20447617769241333,-131.9624547958374,0.23523046059396094,0,True
26.066666666666666,0.05516088008880615,-132.16693097352982,0.3699403744403234,0,True
26.1,-0.007959604263305662,-132.111770093441,0.5571409283097193,0,True
26.133333333333333,-0.008227944374084473,-132.11972969770432,0.7039920748565096,0,True
26.166666666666668,-0.45800125598907476,-132.1279576420784,0.7304890201631916,0,True
26.2,-0.4128938317298889,-132.58595889806747,0.6085038985732324,0,True
26.233333333333334,-0.4265022277832031,-132.99885272979736,0.3753692082476001,0,True
26.266666666666666,-0.31875294446945196,-133.42535495758057,0.11535901502814974,0,True
26.3,-0.4656399488449097,-133.74410790205002,-0.08072138144715967,0,True
26.333333333333332,0.1583048701286316,-134.20974785089493,-0.15707564114542402,0,True
26.366666666666667,-0.04566752910614014,-134.0514429807663,-0.11528901202445316,0,True
26.4,-0.16146016120910642,-134.09711050987244,-0.0072946638795939175,0,True
26.433333333333334,-0.34714841842651367,-134.25857067108154,0.09510774551180717,0,True
26.466666666666665,-0.3661488890647889,-134.60571908950806,0.1345781609378131,0,True
26.5,-0.3376750946044922,-134.97186797857285,0.08665431931307851,0,True
26.533333333333335,-0.37464380264282227,-135.30954307317734,-0.04401875415735321,0,True
26.566666666666666,-0.32640939950942993,-135.68418687582016,-0.24067258158107815,0,True
26.6,-0.32800912857055664,-136.0105962753296,-0.4892151726267978,0,True
26.633333333333333,-0.3466870784759521,-136.33860540390015,-0.7795662082883742,0,True
26.666666666666668,-0.25644099712371826,-136.6852924823761,-1.0925440801594875,0,True
26.7,-0.3211467862129212,-136.94173347949982,-1.381942748310192,0,True
26.733333333333334,-0.4402830600738525,-137.26288026571274,-1.5672363370717297,0,True
26.766666666666666,-0.3112538456916809,-137.7031633257866,-1.5497361578632267,0,True
26.8,0.41035449504852295,-138.01441717147827,-1.2526280772273526,0,True
26.833333333333332,0.19245398044586182,-137.60406267642975,-0.6674420118349901,0,True
26.866666666666667,1.0911487340927122,-137.4116086959839,0.12123176571102871,0,True
26.9,-0.08759516477584839,-136.32045996189117,0.9527224228581664,0,True
26.933333333333334,0.1913687884807587,-136.40805512666702,1.6443960047788537,0,True
26.966666666666665,-0.4807932376861572,-136.21668633818626,2.054984866453174,0,True
27.0,-0.2605464458465576,-136.69747957587242,2.125101044312668,0,True
27.033333333333335,-0.293912410736084,-136.95802602171898,1.8805886435131334,0,True
27.066666666666666,-0.3004429340362549,-137.25193843245506,1.4078750345970295,0,True
27.1,-0.42617893218994135,-137.55238136649132,0.8215616372425909,0,True
27.133333333333333,-0.39646637439727783,-137.97856029868126,0.23870355613279806,0,True
27.166666666666668,-0.3087955713272095,-138.37502667307854,-0.23859303237041637,0,True
27.2,-0.11845052242279051,-138.68382224440575,-0.537839116113119,0,True
27.233333333333334,-0.3714578151702881,-138.80227276682854,-0.6314079540365705,0,True
27.266666666666666,0.3036701977252961,-139.17373058199883,-0.5487155096300863,0,True
27.3,0.4789120256900787,-138.87006038427353,-0.37580300003039474,0,True
27.333333333333332,-0.1582397222518921,-138.39114835858345,-0.23303248923105196,0,True
27.366666666666667,-0.3877781629562378,-138.54938808083534,-0.2326760622786067,0,True
27.4,-0.29993426799774164,-138.93716624379158,-0.4344149154311771,0,True
27.433333333333334,-0.180963397026062,-139.23710051178932,-0.820972295029572,0,True
27.466666666666665,-0.21640801429748532,-139.41806390881538,-1.302564885626758,0,True
27.5,-0.24826353788375857,-139.63447192311287,-1.7431778754684808,0,True
27.533333333333335,0.23548626899719238,-139.88273546099663,-1.9973415790160653,0,True
27.566666666666666,0.21213167905807492,-139.64724919199944,-1.9490892841930045,0,True
27.6,0.047139763832092285,-139.43511751294136,-1.5468731642364193,0,True
27.633333333333333,0.430833637714386,-139.38797774910927,-0.8281118404946818,0,True
27.666666666666668,1.0529373884201052,-138.95714411139488,0.07517810648476979,0,True
27.7,0.6982800960540771,-137.90420672297478,0.9609395298449509,0,True
27.733333333333334,-0.0317988395690918,-137.2059266269207,1.6162502605992533,0,True
27.766666666666666,-0.2578694224357605,-137.2377254664898,1.8937675678648667,0,True
27.8,-0.4541878700256348,-137.49559488892555,1.7688136620991188,0,True
27.833333333333332,-0.3795285820960998,-137.9497827589512,1.3463478563839488,0,True
27.866666666666667,-0.23408019542694092,-138.3293113410473,0.8150671553638685,0,True
27.9,-0.13236087560653687,-138.56339153647423,0.37258373507195863,0,True
27.933333333333334,-0.10243892669677734,-138.69575241208076,0.15477959539366484,0,True
27.966666666666665,0.06923985481262207,-138.79819133877754,0.1947925013897358,0,True
28.0,0.26045483350753784,-138.72895148396492,0.4222182064103076,0,True
28.033333333333335,0.043470263481140144,-138.46849665045738,0.6991449647369495,0,True
28.066666666666666,-0.13587814569473267,-138.42502638697624,0.878540657950128,0,True
28.1,-0.34348833560943604,-138.56090453267097,0.8625674501846612,0,True
28.133333333333333,-0.42432606220245367,-138.9043928682804,0.6376914495807423,0,True
28.166666666666668,-0.40105062723159784,-139.32871893048286,0.27339604123836325,0,True
28.2,-0.22857695817947385,-139.72976955771446,-0.11223052947226518,0,True
28.233333333333334,-0.2927871942520141,-139.95834651589394,-0.4029131813269346,0,True
28.266666666666666,-0.17637050151824948,-140.25113371014595,-0.5289461020288618,0,True
28.3,0.396213561296463,-140.4275042116642,-0.4895213245094677,0,True
28.333333333333332,-0.333715558052063,-140.03129065036774,-0.34593694996953883,0,True
28.366666666666667,-0.27872586250305176,-140.3650062084198,-0.19109256549385387,0,True
28.4,-0.1780463457107544,-140.64373207092285,-0.11114367183586545,0,True
28.433333333333334,-0.16638034582138062,-140.8217784166336,-0.1561729655810946,0,True
28.466666666666665,-0.24091696739196777,-140.988158762455,-0.326988726148915,0,True
28.5,-0.3238348960876465,-141.22907572984695,-0.5762607981495941,0,True
28.533333333333335,-0.3635127544403076,-141.5529106259346,-0.8218691852640322,0,True
28.566666666666666,-0.3372100591659546,-141.9164233803749,-0.9724083026103597,0,True
28.6,-0.2752145528793335,-142.25363343954086,-0.9614391867935048,0,True
28.633333333333333,0.3559388816356659,-142.5288479924202,-0.7789229272787085,0,True
28.666666666666668,0.16549211740493774,-142.17290911078453,-0.4824725827184172,0,True
28.7,0.04406070709228515,-142.0074169933796,-0.17620490664814084,0,True
28.733333333333334,-0.2566770315170288,-141.9633562862873,0.0370185286292409,0,True
28.766666666666666,-0.44087231159210205,-142.22003331780434,0.10498010256281888,0,True
28.8,-0.32238113880157465,-142.66090562939644,0.04858218904011399,0,True
28.833333333333332,-0.2728972434997559,-142.983286768198,-0.054985985538591554,0,True
28.866666666666667,-0.19378578662872314,-143.25618401169777,-0.11718850526435863,0,True
28.9,0.1289507746696472,-143.4499697983265,-0.08490699129094335,0,True
28.933333333333334,0.022514700889587406,-143.32101902365685,0.03618955701778857,0,True
28.966666666666665,-0.1619555950164795,-143.29850432276726,0.1922013898745296,0,True
29.0,-0.3473045825958252,-143.46045991778374,0.3162085046042751,0,True
29.033333333333335,-0.30263775587081915,-143.80776450037956,0.36546996970473494,0,True
29.066666666666666,-0.30425405502319336,-144.11040225625038,0.3397632818650169,0,True
29.1,-0.253409206867218,-144.41465631127357,0.2745088677617857,0,True
29.133333333333333,-0.07709503173828125,-144.6680655181408,0.21749037283461428,0,True
29.166666666666668,-0.32261568307876587,-144.74516054987907,0.20418547758704336,0,True
29.2,-0.35523784160614014,-145.06777623295784,0.24308269288962023,0,True
29.233333333333334,0.024857282638549805,-145.42301407456398,0.31451521514784014,0,True
29.266666666666666,-0.24869632720947266,-145.39815679192543,0.38109637775321675,0,True
29.3,-0.3601269721984864,-145.6468531191349,0.40554812595069895,0,True
29.333333333333332,-0.3885796070098877,-146.0069800913334,0.36871867375304246,0,True
29.366666666666667,-0.4595541954040527,-146.39555969834328,0.27836224180224667,0,True
29.4,-0.3767644762992859,-146.85511389374733,0.16337285372437582,0,True
29.433333333333334,-0.3101962804794311,-147.23187837004662,0.05727102809450991,0,True
29.466666666666665,-0.24140703678131106,-147.54207465052605,-0.018586264999458077,0,True
29.5,-0.2424449920654297,-147.78348168730736,-0.06207812432651276,0,True
29.533333333333335,-0.45078384876251226,-148.0259266793728,-0.08464818254376903,0,True
29.566666666666666,-0.351134181022644,-148.4767105281353,-0.09857131057235823,0,True
29.6,-0.3798767328262329,-148.82784470915794,-0.10690828346456839,0,True
29.633333333333333,-0.28953588008880615,-149.20772144198418,-0.10236838255224695,0,True
29.666666666666668,-0.23413538932800293,-149.49725732207298,-0.07389431762664689,0,True
29.7,-0.20960450172424322,-149.73139271140099,-0.01497893562227089,0,True
29.733333333333334,-0.2456490397453308,-149.94099721312523,0.07162735900306483,0,True
29.766666666666666,-0.3423487544059753,-150.18664625287056,0.17395644553567885,0,True
29.8,-0.36350679397583,-150.52899500727654,0.27298082866855106,0,True
29.833333333333332,-0.23698103427886963,-150.89250180125237,0.3442326526792041,0,True
29.866666666666667,-0.2442178130149841,-151.12948283553123,0.3597759094448186,0,True
29.9,-0.4104108214378357,-151.37370064854622,0.2941774753234458,0,True
29.933333333333334,-0.4085338115692139,-151.78411146998405,0.13579527723618062,0,True
29.966666666666665,-0.4474856853485108,-152.19264528155327,-0.10110367420794929,0,True
30.0,-0.3892405033111572,-152.64013096690178,-0.3711825062827057,0,True
30.033333333333335,-0.39730060100555425,-153.02937147021294,-0.6055081141343306,0,True
30.066666666666666,-0.3197287321090699,-153.4266720712185,-0.7319573340320458,0,True
30.1,-0.20150709152221677,-153.74640080332756,-0.7029038379843695,0,True
30.133333333333333,0.2675232291221618,-153.94790789484978,-0.5194037829793535,0,True
30.166666666666668,-0.16817104816436768,-153.68038466572762,-0.23930031194918433,0,True
30.2,0.017413854598999023,-153.84855571389198,0.038007596239480204,0,True
30.233333333333334,-0.2664324641227723,-153.83114185929298,0.205689666473867,0,True
30.266666666666666,-0.42850512266159063,-154.09757432341576,0.18808821237645185,0,True
30.3,-0.47183108329772944,-154.52607944607735,-0.03182658999596327,0,True
30.333333333333332,-0.2200747728347778,-154.99791052937508,-0.4050882538183078,0,True
30.366666666666667,-0.2833771705627441,-155.21798530220985,-0.8291175561380856,0,True
30.4,-0.29154258966445923,-155.5013624727726,-1.1736912216760824,0,True
30.433333333333334,-0.20871973037719727,-155.79290506243706,-1.3148214622441021,0,True
30.466666666666665,-0.2116849422454834,-156.00162479281425,-1.1727633822010033,0,True
30.5,0.21895194053649902,-156.21330973505974,-0.7464607042643697,0,True
30.533333333333335,1.1544435024261475,-155.99435779452324,-0.1283957618246991,0,True
30.566666666666666,-0.057563781738281236,-154.8399142920971,0.5176975767307228,0,True
30.6,-0.08014065027236938,-154.89747807383537,1.0173705715380783,0,True
30.633333333333333,-0.30444973707199097,-154.97761872410774,1.25756868494597,0,True
30.666666666666668,-0.3471087217330933,-155.28206846117973,1.2307422471812794,0,True
30.7,-0.30145430564880377,-155.62917718291283,1.028203183857213,0,True
30.733333333333334,-0.2203902006149292,-155.93063148856163,0.7901009968847369,0,True
30.766666666666666,-0.12787455320358276,-156.15102168917656,0.6394957200405109,0,True
30.8,0.043179929256439216,-156.27889624238014,0.631031950554947,0,True
30.833333333333332,0.09763634204864502,-156.2357163131237,0.7347864177954341,0,True
30.866666666666667,-0.18977653980255127,-156.13807997107506,0.8590137960914069,0,True
30.9,-0.3060920238494873,-156.3278565108776,0.8981081749358132,0,True
30.933333333333334,-0.40723675489425665,-156.6339485347271,0.7814882256916525,0,True
30.966666666666665,-0.5014470815658569,-157.04118528962135,0.501215786172295,0,True
31.0,-0.3683615326881408,-157.5426323711872,0.1094587952094047,0,True
31.033333333333335,-0.4003103375434876,-157.91099390387535,-0.30760246916148243,0,True
31.066666666666666,-0.2689298987388611,-158.31130424141884,-0.6638219511802723,0,True
31.1,-0.19522762298583984,-158.5802341401577,-0.8997425636031786,0,True
31.133333333333333,-0.09716492891311646,-158.77546176314354,-0.9934258714226624,0,True
31.166666666666668,-0.16562759876251218,-158.87262669205666,-0.9558239965621108,0,True
31.2,-0.09214460849761963,-159.03825429081917,-0.8177795725353565,0,True
31.233333333333334,-0.17713153362274167,-159.1303988993168,-0.6177849222108561,0,True
31.266666666666666,-0.23639488220214844,-159.30753043293953,-0.39614479281788956,0,True
31.3,0.30412566661834717,-159.54392531514168,-0.1942765907202135,0,True
31.333333333333332,-0.21022558212280276,-159.23979964852333,-0.05233727888856035,0,True
31.366666666666667,-0.30708217620849604,-159.45002523064613,0.00028655269036176843,0,True
31.4,-0.34304022789001465,-159.75710740685463,-0.04175369714737445,0,True
31.433333333333334,-0.37820881605148315,-160.10014763474464,-0.1533270740671934,0,True
31.466666666666665,-0.3435405492782592,-160.47835645079613,-0.28628101856469484,0,True
31.5,0.027088940143585205,-160.8218970000744,-0.3873924189165905,0,True
31.533333333333335,-0.23711204528808594,-160.7948080599308,-0.4163923994989653,0,True
31.566666666666666,-0.10836100578308107,-161.0319201052189,-0.35526141510353537,0,True
31.6,-0.3094466924667358,-161.14028111100197,-0.20782249416274232,0,True
31.633333333333333,0.1923119425773621,-161.4497278034687,0.004972622749989923,0,True
31.666666666666668,-0.43194448947906494,-161.25741586089134,0.2494470754638618,0,True
31.7,0.1321045160293579,-161.6893603503704,0.4833899353492405,0,True
31.733333333333334,-0.15995478630065915,-161.55725583434105,0.662531526885357,0,True
31.766666666666666,-0.20805788040161133,-161.7172106206417,0.7506532966203546,0,True
31.8,-0.4140713214874267,-161.92526850104332,0.7311720130898155,0,True
31.833333333333332,-0.42956399917602545,-162.33933982253075,0.6140488951951333,0,True
31.866666666666667,-0.41964447498321533,-162.76890382170677,0.4320683633893514,0,True
31.9,-0.42336821556091303,-163.18854829669,0.22689599960576384,0,True
31.933333333333334,-0.10376644134521484,-163.6119165122509,0.03275537382591721,0,True
31.966666666666665,-0.40057891607284546,-163.71568295359612,-0.13239914806310643,0,True
32.0,-0.3351615071296692,-164.11626186966896,-0.26371605137145876,0,True
32.03333333333333,-0.35454761981964117,-164.45142337679863,-0.3588961460360538,0,True
32.06666666666667,-0.32112234830856323,-164.80597099661827,-0.41009486917933813,0,True
32.1,-0.26762574911117554,-165.12709334492683,-0.40505860427493806,0,True
32.13333333333333,-0.21662402153015134,-165.394719094038,-0.33654566722021095,0,True
32.166666666666664,-0.13074010610580444,-165.61134311556816,-0.21304838338655846,0,True
32.2,-0.11410331726074217,-165.74208322167397,-0.06265106840066383,0,True
32.233333333333334,-0.2019396424293518,-165.8561865389347,0.0743163153049211,0,True
32.266666666666666,-0.40908205509185797,-166.05812618136406,0.16118562206158482,0,True
32.3,-0.279913067817688,-166.46720823645592,0.18076946423901058,0,True
32.333333333333336,-0.4082880020141601,-166.7471213042736,0.1420065193166754,0,True
32.36666666666667,-0.3517315983772278,-167.15540930628777,0.07407506223857718,0,True
32.4,-0.31752234697341913,-167.507140904665,0.01186680634923835,0,True
32.43333333333333,-0.22257739305496216,-167.8246632516384,-0.019254977784114717,0,True
32.46666666666667,-0.1694358587265015,-168.04724064469337,-0.011860489661380796,0,True
32.5,-0.3475130796432495,-168.21667650341988,0.02534522271211234,0,True
32.53333333333333,-0.31736671924591064,-168.56418958306313,0.07660901953876192,0,True
32.56666666666667,-0.267164945602417,-168.88155630230904,0.12831629562498753,0,True
32.6,-0.2650304436683654,-169.14872124791145,0.1725287787607179,0,True
32.63333333333333,-0.38981485366821284,-169.41375169157982,0.20467886272122246,0,True
32.666666666666664,-0.10732698440551756,-169.80356654524803,0.21957929951265437,0,True
32.7,-0.29233038425445557,-169.91089352965355,0.21043823335423625,0,True
32.733333333333334,-0.3174006938934326,-170.203223913908,0.1729715674747348,0,True
32.766666666666666,-0.37838959693908686,-170.52062460780144,0.11210660402901496,0,True
32.8,-0.22890388965606687,-170.89901420474052,0.04519245611431784,0,True
32.833333333333336,-0.4197953939437866,-171.1279180943966,-0.0030269199992620636,0,True
32.86666666666667,-0.30391961336135864,-171.54771348834038,-0.012938985924433469,0,True
32.9,-0.0253790020942688,-171.85163310170174,0.016014334203834822,0,True
32.93333333333333,-0.20332664251327517,-171.877012103796,0.05869603892988777,0,True
32.96666666666667,-0.24888527393341064,-172.08033874630928,0.07131961492081228,0,True
33.0,-0.4547746181488037,-172.3292240202427,0.010557101509413516,0,True
33.03333333333333,-0.4146033525466919,-172.7839986383915,-0.14536292896685085,0,True
33.06666666666667,-0.334866464138031,-173.1986019909382,-0.38471781115413084,0,True
33.1,-0.37293577194213867,-173.53346845507622,-0.6640411519405383,0,True
33.13333333333333,-0.3297079801559448,-173.90640422701836,-0.920745480847785,0,True
33.166666666666664,-0.20304369926452634,-174.2361122071743,-1.0909990955482662,0,True
33.2,-0.36390757560729975,-174.43915590643883,-1.1279160523121243,0,True
33.233333333333334,-0.041105687618255615,-174.80306348204613,-1.0157825059000856,0,True
33.266666666666666,0.4332545399665833,-174.84416916966438,-0.7754394723807179,0,True
33.3,-0.18164438009262082,-174.4109146296978,-0.4562738521968907,0,True
33.333333333333336,0.0048346519470214835,-174.59255900979042,-0.11589431203436079,0,True
33.36666666666667,-0.24430429935455322,-174.5877243578434,0.20174672922332676,0,True
33.4,-0.15963649749755857,-174.83202865719795,0.47596533643054534,0,True
33.43333333333333,0.08540406823158266,-174.9916651546955,0.7025388257121279,0,True
33.46666666666667,0.13139784336090085,-174.90626108646393,0.8798315988387448,0,True
33.5,-0.24480921030044558,-174.77486324310303,1.0015027090488486,0,True
33.53333333333333,-0.3647781014442444,-175.01967245340347,1.0608485620868517,0,True
33.56666666666667,-0.2175292372703552,-175.38445055484772,1.0593533202791698,0,True
33.6,-0.454009234905243,-175.60197979211807,1.0088964803535454,0,True
33.63333333333333,0.1588531136512756,-176.05598902702332,0.9254308725417192,0,True
33.666666666666664,-0.3994008302688599,-175.89713591337204,0.8210387480751762,0,True
33.7,-0.34774821996688854,-176.2965367436409,0.7015203990153198,0,True
33.733333333333334,-0.3426936268806457,-176.6442849636078,0.5693102391085116,0,True
33.766666666666666,-0.27608573436737055,-176.98697859048843,0.42606006042399214,0,True
33.8,-0.3035085201263428,-177.2630643248558,0.2718407307239901,0,True
33.833333333333336,-0.2050817012786865,-177.56657284498215,0.1035930929764017,0,True
33.86666666666667,-0.29476606845855713,-177.77165454626083,-0.08337083836944571,0,True
33.9,-0.44176292419433594,-178.0664206147194,-0.29062725434877573,0,True
33.93333333333333,-0.38798511028289795,-178.50818353891373,-0.5124909885652463,0,True
33.96666666666667,-0.3734906315803528,-178.89616864919662,-0.7366502586817382,0,True
34.0,-0.23873889446258545,-179.26965928077698,-0.9494176403004131,0,True
34.03333333333333,-0.19737333059310916,-179.50839817523956,-1.1402877115340204,0,True
34.06666666666667,-0.23038089275360107,-179.70577150583267,-1.3001973310955448,0,True
34.1,-0.24206912517547607,-179.93615239858627,-1.41348058453326,0,True
34.13333333333333,-0.024406790733337406,-180.17822152376175,-1.4502462864665309,0,True
34.166666666666664,-0.13974750041961667,-180.2026283144951,-1.3679372686519706,0,True
34.2,-0.3098551034927368,-180.3423758149147,-1.1266514137626515,0,True
34.233333333333334,0.3624403476715088,-180.65223091840744,-0.7148442371663759,0,True
34.266666666666666,0.30878973007202143,-180.28979057073593,-0.17282659071646067,0,True
34.3,0.5224043130874634,-179.9810008406639,0.40372603943342494,0,True
34.333333333333336,-0.24203026294708252,-179.45859652757645,0.8904069601602304,0,True
34.36666666666667,-0.3290174007415771,-179.70062679052353,1.1810147856037518,0,True
34.4,-0.26067250967025757,-180.0296441912651,1.2290904608715472,0,True
34.43333333333333,-0.34132927656173706,-180.29031670093536,1.0620614840886946,0,True
34.46666666666667,-0.30821168422698975,-180.6316459774971,0.7647368802406429,0,True
34.5,-0.399635374546051,-180.9398576617241,0.44473123240256984,0,True
34.53333333333333,-0.17601102590560913,-181.33949303627014,0.19587100204939978,0,True
34.56666666666667,-0.21265423297882077,-181.51550406217575,0.07149117129027227,0,True
34.6,-0.3160620927810669,-181.72815829515457,0.07423416321392112,0,True
34.63333333333333,0.5493681430816652,-182.04422038793564,0.1640318974560902,0,True
34.666666666666664,-0.4062420129776001,-181.49485224485397,0.2810770384975474,0,True
34.7,-0.3134219050407409,-181.90109425783157,0.37463601237985017,0,True
34.733333333333334,-0.31213885545730585,-182.21451616287231,0.422870771763333,0,True
34.766666666666666,-0.091086745262146,-182.52665501832962,0.4319036327006529,0,True
34.8,-0.039314746856689446,-182.61774176359177,0.4174567675794961,0,True
34.833333333333336,-0.17610061168670654,-182.65705651044846,0.38576406762139503,0,True
34.86666666666667,-0.14348137378692627,-182.83315712213516,0.32835081723389187,0,True
34.9,-0.32004219293594355,-182.9766384959221,0.23191877887040313,0,True
34.93333333333333,-0.455808162689209,-183.29668068885803,0.09321905266876626,0,True
34.96666666666667,-0.2345958948135376,-183.75248885154724,-0.0730815209505638,0,True
35.0,-0.018166780471801758,-183.98708474636078,-0.23869596990295205,0,True
35.03333333333333,-0.4432868361473084,-184.00525152683258,-0.3740358640045004,0,True
35.06666666666667,-0.3130049705505371,-184.4485383629799,-0.46056385222528523,0,True
35.1,0.13699871301651,-184.76154333353043,-0.49791206518327485,0,True
35.13333333333333,-0.02534973621368408,-184.62454462051392,-0.5031934402633383,0,True
35.166666666666664,-0.43306314945220953,-184.6498943567276,-0.5014179720775361,0,True
35.2,-0.1676155924797058,-185.0829575061798,-0.5114085805997144,0,True
35.233333333333334,-0.12063294649124146,-185.25057309865952,-0.5371125947147914,0,True
35.266666666666666,-0.2881007790565491,-185.37120604515076,-0.5703787624447714,0,True
35.3,-0.39708679914474493,-185.6593068242073,-0.6015858752963864,0,True
35.333333333333336,0.21509110927581787,-186.05639362335205,-0.6292354450895958,0,True
35.36666666666667,-0.02776968479156494,-185.84130251407623,-0.6602239325834769,0,True
35.4,-0.2225323915481567,-185.8690721988678,-0.6975710568453514,0,True
35.43333333333333,-0.3549615144729614,-186.09160459041595,-0.7231090744890442,0,True
35.46666666666667,-0.33187222480773926,-186.44656610488892,-0.6919576045199518,0,True
35.5,-0.0012155771255493164,-186.77843832969666,-0.5505689065717204,0,True
35.53333333333333,0.20238247513771057,-186.7796539068222,-0.2712962981075619,0,True
35.56666666666667,0.2124565243721008,-186.5772714316845,0.1196168580579905,0,True
35.6,0.32982078194618225,-186.3648149073124,0.5424117521624527,0,True
35.63333333333333,-0.30993378162384033,-186.0349941253662,0.8962312357001054,0,True
35.666666666666664,-0.27148640155792236,-186.34492790699005,1.10570978616312,0,True
35.7,-0.3440535068511963,-186.61641430854797,1.154197928293692,0,True
35.733333333333334,-0.2874021530151367,-186.96046781539917,1.0851128144275914,0,True
35.766666666666666,-0.31713378429412836,-187.2478699684143,0.9732505363271333,0,True
35.8,-0.2546422481536865,-187.56500375270844,0.8842086279219187,0,True
35.833333333333336,0.08582693338394165,-187.81964600086212,0.8436573246317907,0,True
35.86666666666667,-0.3465682864189148,-187.73381906747818,0.8308578581458184,0,True
35.9,-0.3591350317001343,-188.0803873538971,0.7972659116064178,0,True
35.93333333333333,-0.5206661224365235,-188.43952238559723,0.6972269292167391,0,True
35.96666666666667,-0.3841349482536316,-188.96018850803375,0.51249649255706,0,True
36.0,-0.37025928497314453,-189.34432345628738,0.2595348892765604,0,True
36.03333333333333,-0.3601411581039429,-189.71458274126053,-0.019250195008603456,0,True
36.06666666666667,-0.4226396679878235,-190.07472389936447,-0.2723148608866088,0,True
36.1,-0.3995306491851806,-190.4973635673523,-0.45664563833955973,0,True
36.13333333333333,-0.29063498973846436,-190.89689421653748,-0.5522297047642396,0,True
36.166666666666664,-0.28595829010009766,-191.18752920627594,-0.5700561395739825,0,True
36.2,0.012901008129119873,-191.47348749637604,-0.5495968347177688,0,True
36.233333333333334,-0.34140145778656,-191.46058648824692,-0.5434841289744756,0,True
36.266666666666666,-0.40790188312530523,-191.80198794603348,-0.5934457055384523,0,True
36.3,-0.45714128017425537,-192.20988982915878,-0.7089320236577453,0,True
36.333333333333336,-0.3075758218765259,-192.66703110933304,-0.8607973820235765,0,True
36.36666666666667,-0.34351378679275507,-192.97460693120956,-0.9938520574658063,0,True
36.4,-0.08754515647888182,-193.31812071800232,-1.0507872739104338,0,True
36.43333333333333,-0.10977613925933838,-193.4056658744812,-0.994706898512733,0,True
36.46666666666667,-0.045234024524688714,-193.51544201374054,-0.8203463554933,0,True
36.5,0.07595998048782349,-193.56067603826523,-0.5514679663847333,0,True
36.53333333333333,-0.3699999451637268,-193.4847160577774,-0.22911627312988805,0,True
36.56666666666667,0.2329375445842743,-193.85471600294113,0.10144345210707853,0,True
36.6,-0.30399942398071284,-193.62177845835686,0.39970599920298017,0,True
36.63333333333333,0.3598927855491638,-193.92577788233757,0.6350177610088928,0,True
36.666666666666664,-0.38442611694335943,-193.5658850967884,0.7909151367517074,0,True
36.7,-0.3071784973144531,-193.95031121373177,0.8687715002154632,0,True
36.733333333333334,-0.24151766300201416,-194.25748971104622,0.886052089815456,0,True
36.766666666666666,-0.1040797233581543,-194.49900737404823,0.8658961870091605,0,True
36.8,-0.2207271456718445,-194.6030870974064,0.8227822612485648,0,True
36.833333333333336,-0.26292383670806885,-194.82381424307823,0.7541501826252157,0,True
36.86666666666667,-0.2503156065940857,-195.0867380797863,0.6437510561666503,0,True
36.9,-0.342190146446228,-195.3370536863804,0.47441769921729127,0,True
36.93333333333333,-0.33140993118286133,-195.67924383282661,0.24314961481252192,0,True
36.96666666666667,-0.3433407545089721,-196.01065376400948,-0.029031189295590187,0,True
37.0,-0.39977431297302246,-196.35399451851845,-0.297784694797232,0,True
37.03333333333333,-0.2958886623382569,-196.75376883149147,-0.5080742704262202,0,True
37.06666666666667,-0.1805620789527893,-197.04965749382973,-0.6149410748892257,0,True
37.1,-0.2979642152786255,-197.23021957278252,-0.6038752152749601,0,True
37.13333333333333,0.36162230372428894,-197.52818378806114,-0.5003130806432505,0,True
37.166666666666664,-0.2054874300956726,-197.16656148433685,-0.36102613046414933,0,True
37.2,-0.29819607734680176,-197.37204891443253,-0.24915351327019272,0,True
37.233333333333334,-0.3967278599739074,-197.67024499177933,-0.20592541576931342,0,True
37.266666666666666,-0.17727833986282346,-198.06697285175323,-0.23618367795131556,0,True
37.3,-0.54691219329834,-198.24425119161606,-0.3153319177746211,0,True
37.333333333333336,-0.07297611236572266,-198.7911633849144,-0.4103016948624542,0,True
37.36666666666667,-0.1551198363304138,-198.86413949728012,-0.4991612586930009,0,True
37.4,-0.2920212745666504,-199.01925933361053,-0.5767396718816359,0,True
37.43333333333333,-0.3667836785316468,-199.31128060817719,-0.6441505062495466,0,True
37.46666666666667,-0.2837933897972107,-199.67806428670883,-0.6921188526746638,0,True
37.5,-0.2653281092643738,-199.96185767650604,-0.6924252837126468,0,True
37.53333333333333,-0.3221844434738159,-200.22718578577042,-0.6053173641908096,0,True
37.56666666666667,-0.13354074954986572,-200.54937022924423,-0.3997738713924957,0,True
37.6,0.26588404178619385,-200.6829109787941,-0.07507274753562548,0,True
37.63333333333333,0.07444554567337038,-200.4170269370079,0.3304827877520133,0,True
37.666666666666664,-0.08182209730148315,-200.34258139133453,0.7516413595526337,0,True
37.7,-0.3923134803771972,-200.42440348863602,1.1230170473973948,0,True
37.733333333333334,-0.18375396728515622,-200.8167169690132,1.4033403335657664,0,True
37.766666666666666,-0.21020996570587155,-201.00047093629837,1.582748045586857,0,True
37.8,-0.09007394313812254,-201.21068090200424,1.672939737396348,0,True
37.833333333333336,-0.33674097061157227,-201.30075484514236,1.691304749785781,0,True
37.86666666666667,-0.38141691684722895,-201.63749581575394,1.6495642665602637,0,True
37.9,-0.3546773791313171,-202.01891273260117,1.54969183539957,0,True
37.93333333333333,-0.4700839519500733,-202.37359011173248,1.3846438577114024,0,True
37.96666666666667,-0.3068532943725586,-202.84367406368256,1.142078642912758,0,True
38.0,-0.4689762592315674,-203.15052735805511,0.8115922406317553,0,True
38.03333333333333,-0.39277106523513794,-203.61950361728668,0.3955884857989919,0,True
38.06666666666667,-0.3709051609039307,-204.01227468252182,-0.07948208479935656,0,True
38.1,-0.4390060305595398,-204.38317984342575,-0.5581624100056523,0,True
38.13333333333333,-0.3201115131378174,-204.8221858739853,-0.9641740952191746,0,True
38.166666666666664,-0.21715742349624634,-205.1422973871231,-1.224202164261134,0,True
38.2,-0.0002785921096801757,-205.35945481061935,-1.301320888371573,0,True
38.233333333333334,0.06365668773651123,-205.35973340272903,-1.2233394873466108,0,True
38.266666666666666,0.03236585855484009,-205.29607671499252,-1.0882854695238684,0,True
38.3,0.6452041864395142,-205.26371085643768,-1.0356771426084237,0,True
38.333333333333336,-0.4012256860733032,-204.61850666999817,-1.1869622858481228,0,True
38.36666666666667,-0.29686701297760004,-205.01973235607147,-1.5771219668143504,0,True
38.4,-0.21157836914062497,-205.31659936904907,-2.1126750047726484,0,True
38.43333333333333,-0.03127884864807129,-205.5281777381897,-2.585613004864663,0,True
38.46666666666667,0.056938081979751594,-205.55945658683777,-2.7461163137783493,0,True
38.5,1.2513800859451292,-205.50251850485802,-2.406122764705537,0,True
38.53333333333333,1.1672351360321047,-204.2511384189129,-1.5285735838969674,0,True
38.56666666666667,0.9690521955490112,-203.08390328288078,-0.26087269586821477,0,True
38.6,1.1771090030670164,-202.11485108733177,1.1043778869895717,0,True
38.63333333333333,1.495269536972046,-200.93774208426476,2.225750802660314,0,True
38.666666666666664,-0.43768632411956776,-199.4424725472927,2.8284338857027573,0,True
38.7,-0.44498503208160406,-199.88015887141228,2.7929425314605663,0,True
38.733333333333334,-0.3690016269683838,-200.32514390349388,2.178797931821314,0,True
38.766666666666666,-0.3727083206176758,-200.69414553046227,1.1753630545823166,0,True
38.8,-0.062744140625,-201.06685385107994,0.01455239151234654,0,True
38.833333333333336,0.6930557489395142,-201.12959799170494,-1.0998517148448117,0,True
38.86666666666667,-0.10335516929626463,-200.43654224276543,-2.0114043190978856,0,True
38.9,-0.19960129261016846,-200.5398974120617,-2.58725988465101,0,True
38.93333333333333,-0.07381898164749147,-200.73949870467186,-2.695463013909068,0,True
38.96666666666667,1.1957345008850098,-200.81331768631935,-2.2254751848953154,0,True
39.0,1.5470209121704102,-199.61758318543434,-1.1522510816748266,0,True
39.03333333333333,1.5165228843688967,-198.07056227326393,0.40117724774173524,0,True
39.06666666666667,1.352679371833801,-196.55403938889503,2.1547458998023026,0,True
39.1,1.3154608011245725,-195.20136001706123,3.7349882429951853,0,True
39.13333333333333,0.1796637177467346,-193.88589921593666,4.788247403232172,0,True
39.166666666666664,-0.3254304528236389,-193.70623549818993,5.095577146493055,0,True
39.2,-0.5240437984466552,-194.03166595101357,4.640359960897455,0,True
39.233333333333334,-0.5317306518554688,-194.55570974946022,3.601465584807297,0,True
39.266666666666666,-0.54537034034729,-195.0874404013157,2.27959196524069,0,True
39.3,-0.599689245223999,-195.63281074166298,0.9913622357324561,0,True
39.333333333333336,-0.2068996429443359,-196.23249998688698,-0.02880141389836561,0,True
39.36666666666667,0.008177876472473143,-196.4393996298313,-0.6894478659426896,0,True
39.4,-0.05217981338500976,-196.43122175335884,-1.050916487799351,0,True
39.43333333333333,-0.23894017934799197,-196.48340156674385,-1.2833739332896186,0,True
39.46666666666667,-0.22488725185394284,-196.72234174609184,-1.5905521836087693,0,True
39.5,-0.32290816307067877,-196.94722899794579,-2.124984241042702,0,True
39.53333333333333,-0.4713268280029297,-197.27013716101646,-2.920261822515613,0,True
39.56666666666667,-0.3756163120269775,-197.7414639890194,-3.8599605047798575,0,True
39.6,-0.258471667766571,-198.11708030104637,-4.695666367575469,0,True
39.63333333333333,-0.3848370909690857,-198.37555196881294,-5.116507237046673,0,True
39.666666666666664,0.46428304910659796,-198.76038905978203,-4.856962418829246,0,True
39.7,1.5834841728210451,-198.29610601067543,-3.809703025368892,0,True
39.733333333333334,1.3724617958068845,-196.71262183785439,-2.0950938817101425,0,True
39.766666666666666,1.48766815662384,-195.3401600420475,-0.046260347536959845,0,True
39.8,1.071463942527771,-193.85249188542366,1.8945585083837835,0,True
39.833333333333336,0.0933801531791687,-192.7810279428959,3.3267850883825076,0,True
39.86666666666667,-0.4647216796875,-192.68764778971672,4.023175755405356,0,True
39.9,-0.4873925447463989,-193.15236946940422,3.986123451786148,0,True
39.93333333333333,-0.43283784389495844,-193.63976201415062,3.410757224349189,0,True
39.96666666666667,-0.5076514482498169,-194.07259985804558,2.5827018582266583,0,True
40.0,-0.2840872406959533,-194.5802513062954,1.7639948743882026,0,True
40.03333333333333,-0.3024685382843018,-194.86433854699135,1.1144814476679261,0,True
40.06666666666667,-0.326349139213562,-195.16680708527565,0.6697775504843214,0,True
40.1,-0.3531304597854614,-195.4931562244892,0.3694398691450947,0,True
40.13333333333333,-0.35492563247680664,-195.84628668427467,0.11218154464051211,0,True
40.166666666666664,-0.26119530200958246,-196.20121231675148,-0.1877062669882142,0,True
40.2,-0.3112142086029053,-196.46240761876106,-0.561009912410381,0,True
40.233333333333334,-0.39459502696990956,-196.77362182736397,-0.9698017444222589,0,True
40.266666666666666,-0.3178654313087463,-197.16821685433388,-1.320729338982572,0,True
40.3,-0.31096935272216797,-197.48608228564262,-1.5015376352211975,0,True
40.333333333333336,0.04390168190002442,-197.7970516383648,-1.4298704916513991,0,True
40.36666666666667,0.24984020114124436,-197.75314995646477,-1.095678872002778,0,True
40.4,0.4877866640844906,-197.50330975532353,-0.5763693499643687,0,True
40.43333333333333,0.14002465907045256,-197.01552309123903,-0.013060275092317114,0,True
40.46666666666667,-0.2670682831720817,-196.87549843216857,0.44405573643517576,0,True
40.5,-0.3296530842781067,-197.14256671534065,0.694405780747358,0,True
40.53333333333333,-0.3387927908268084,-197.47221979961876,0.7197348030512902,0,True
40.56666666666667,-0.4292650818346754,-197.81101259044556,0.5770461434843382,0,True
40.6,-0.33584611146576665,-198.24027767228023,0.36103751259211037,0,True
40.63333333333333,-0.10741211504366009,-198.576123783746,0.15893771419742864,0,True
40.666666666666664,-0.2933094209228552,-198.68353589878967,0.01978677266770708,0,True
40.7,-0.2972183899673784,-198.97684531971254,-0.051206854690310166,0,True
40.733333333333334,-0.35096069062633106,-199.27406370967992,-0.07748088525654073,0,True
40.766666666666666,-0.3459046142114952,-199.62502440030624,-0.08895280748174242,0,True
40.8,-0.2024912851610888,-199.97092901451774,-0.10578135710196865,0,True
40.833333333333336,-0.3325253129005432,-200.17342029967884,-0.1329890023331294,0,True
40.86666666666667,-0.2994581551487599,-200.50594561257938,-0.16363556394280454,0,True
40.9,-0.1812781691327404,-200.80540376772814,-0.18573790865831405,0,True
40.93333333333333,-0.3411672089354287,-200.9866819368609,-0.1889595285053291,0,True
40.96666666666667,-0.2132060048109886,-201.3278491457963,-0.16878312887298919,0,True
41.0,-0.2705711078247695,-201.5410551506073,-0.12767060511400036,0,True
41.03333333333333,-0.24363232187570444,-201.81162625843206,-0.07394075617364125,0,True
41.06666666666667,-0.2819540225456362,-202.05525858030776,-0.019183500479440955,0,True
41.1,-0.18331108196106943,-202.3372126028534,0.025299659534017117,0,True
41.13333333333333,-0.1853087221772044,-202.5205236848145,0.05255221224019836,0,True
41.166666666666664,-0.39415669441223145,-202.7058324069917,0.06342047534948247,0,True
41.2,-0.2751341046285209,-203.09998910140393,0.06706012756084347,0,True
41.233333333333334,-0.2258710371303641,-203.37512320603247,0.07613069685263127,0,True
41.266666666666666,-0.4116312025477599,-203.60099424316283,0.09755283379900685,0,True
41.3,-0.14408305010616093,-204.0126254457106,0.1240355736319534,0,True
41.333333333333336,-0.0730390964514434,-204.15670849581676,0.13297466751550066,0,True
41.36666666666667,-0.38752542927788497,-204.2297475922682,0.09637781149477903,0,True
41.4,-0.41115882150914046,-204.61727302154608,-0.001398098880681763,0,True
41.43333333333333,-0.3852322060032643,-205.02843184305522,-0.14867190003564726,0,True
41.46666666666667,-0.3976719683021986,-205.41366404905847,-0.30537468781045923,0,True
41.5,-0.2838165760040283,-205.81133601736067,-0.4185614487076188,0,True
41.53333333333333,-0.22822550212106296,-206.0951525933647,-0.4466210783312362,0,True
41.56666666666667,-0.06177369054361283,-206.32337809548577,-0.3790853761971667,0,True
41.6,0.12795120012477065,-206.38515178602938,-0.24088481011620408,0,True
41.63333333333333,-0.36442725983993324,-206.2572005859046,-0.0779379909872086,0,True
41.666666666666664,-0.1769959354144198,-206.62162784574454,0.06787142833865402,0,True
41.7,-0.30640956990539076,-206.79862378115897,0.17881292018380607,0,True
41.733333333333334,-0.2148997033245273,-207.10503335106435,0.26427729019082224,0,True
41.766666666666666,-0.17382331529079392,-207.31993305438888,0.34651992485820055,0,True
41.8,0.04907730343641071,-207.4937563696797,0.44012138055642097,0,True
41.833333333333336,-0.3426195979118347,-207.44467906624328,0.5385371651248256,0,True
41.86666666666667,-0.20265226657780236,-207.78729866415512,0.6148507561793062,0,True
41.9,-0.1617501467065321,-207.98995093073293,0.6343291843250953,0,True
41.93333333333333,-0.4218494623960267,-208.15170107743947,0.5707205948507548,0,True
41.96666666666667,-0.4878957777435295,-208.5735505398355,0.41830649493891786,0,True
42.0,-0.360709131104379,-209.06144631757903,0.19445509278685733,0,True
42.03333333333333,-0.44869779382489633,-209.4221554486834,-0.06805063885002743,0,True
42.06666666666667,-0.37249833177031266,-209.8708532425083,-0.33381170480343214,0,True
42.1,-0.30659502492099955,-210.24335157427862,-0.5747654966272355,0,True
42.13333333333333,-0.21627893297322262,-210.54994659919961,-0.7719237279247998,0,True
42.166666666666664,-0.21030551195144653,-210.76622553217283,-0.9093218929981542,0,True
42.2,-0.4307427813567129,-210.97653104412427,-0.9664804197547351,0,True
42.233333333333334,-0.2965393258650416,-211.40727382548098,-0.9185387419618978,0,True
42.266666666666666,-0.23058503744139727,-211.70381315134603,-0.7491847595682702,0,True
42.3,0.5155103161097536,-211.9343981887874,-0.4703753092075222,0,True
42.333333333333336,-0.1929426595264308,-211.41888787267766,-0.13302147392971098,0,True
42.36666666666667,-0.21111360188624181,-211.6118305322041,0.18406536086023892,0,True
42.4,-0.17210809114354061,-211.82294413409033,0.40368214535087094,0,True
42.43333333333333,-0.25979892094861473,-211.99505222523388,0.4817012007191319,0,True
42.46666666666667,-0.29994276815824417,-212.2548511461825,0.42509477507130156,0,True
42.5,-0.4794512987136841,-212.55479391434073,0.2901599195347416,0,True
42.53333333333333,-0.25027718531080956,-213.03424521305442,0.1618698982262206,0,True
42.56666666666667,-0.288487072501877,-213.28452239836523,0.12081458996867306,0,True
42.6,-0.08015157340685573,-213.5730094708671,0.2098062043195389,0,True
42.63333333333333,0.10586397773797859,-213.65316104427396,0.4146471093367152,0,True
42.666666666666664,0.0010194182395935041,-213.54729706653598,0.6690964116211806,0,True
42.7,-0.3062409840019483,-213.54627764829638,0.8830746446341836,0,True
42.733333333333334,-0.37017319965736883,-213.85251863229834,0.9805302228564355,0,True
42.766666666666666,-0.3915189977521502,-214.2226918319557,0.9277071159558966,0,True
42.8,-0.4067400477528346,-214.61421082970784,0.7393092656381092,0,True
42.833333333333336,-0.30032438039779663,-215.02095087746068,0.4640925453737561,0,True
42.86666666666667,-0.3200087220778191,-215.32127525785847,0.16159837585003728,0,True
42.9,-0.4976009446449901,-215.6412839799363,-0.11766193493052378,0,True
42.93333333333333,-0.20388386927068544,-216.1388849245813,-0.3424642832758995,0,True
42.96666666666667,-0.15226500657915143,-216.342768793852,-0.5018133471175679,0,True
43.0,-0.3058395839837884,-216.49503380043114,-0.5994650695508212,0,True
43.03333333333333,-0.23817335656574024,-216.80087338441493,-0.6458016816140276,0,True
43.06666666666667,-0.11206428019798796,-217.03904674098067,-0.6516690531932983,0,True
43.1,-0.2395853160288583,-217.15111102117865,-0.6270733401893926,0,True
43.13333333333333,0.04501818006601442,-217.39069633720752,-0.583109436786216,0,True
43.166666666666664,0.03126180171966553,-217.3456781571415,-0.5326369654633165,0,True
43.2,-0.2332482184362361,-217.31441635542183,-0.4869686900811363,0,True
43.233333333333334,-0.23955427663336293,-217.54766457385807,-0.4509156991003564,0,True
43.266666666666666,-0.2379539139427125,-217.78721885049143,-0.4221302617443469,0,True
43.3,0.1471976331639259,-218.02517276443413,-0.3973560183383154,0,True
43.333333333333336,-0.03296556877349623,-217.8779751312702,-0.37990007197158554,0,True
43.36666666666667,-0.18589385506317493,-217.9109407000437,-0.3794375220464933,0,True
43.4,-0.09577189136196937,-218.09683455510688,-0.4023139454321228,0,True
43.43333333333333,-0.19918737560460087,-218.19260644646886,-0.44013242473183434,0,True
43.46666666666667,-0.11607177581955286,-218.39179382207345,-0.4663009645583338,0,True
43.5,-0.2588965892791748,-218.50786559789302,-0.4440242811774759,0,True
43.53333333333333,0.6524477462492652,-218.7667621871722,-0.34130735306543114,0,True
43.56666666666667,-0.151246182949409,-218.11431444092293,-0.1438890682310357,0,True
43.6,-0.09176762841444762,-218.26556062387235,0.14056669193232357,0,True
43.63333333333333,0.028334998085152795,-218.3573282522868,0.48506162141407444,0,True
43.666666666666664,0.4005489005315267,-218.32899325420166,0.8464111201649979,0,True
43.7,0.018399623422277925,-217.92844435367013,1.1690755286151728,0,True
43.733333333333334,-0.0930483071950311,-217.91004473024785,1.395452787631646,0,True
43.766666666666666,-0.16408598020091744,-218.00309303744288,1.4829065795000138,0,True
43.8,-0.18060346446473594,-218.1671790176438,1.4191167054969163,0,True
43.833333333333336,-0.43438649177551275,-218.34778248210853,1.2267572479229807,0,True
43.86666666666667,-0.3245017576914375,-218.78216897388404,0.9546032888197818,0,True
43.9,-0.2555551523320409,-219.1066707315755,0.6585959456573897,0,True
43.93333333333333,-0.366909410322966,-219.36222588390754,0.3809894732288821,0,True
43.96666666666667,-0.14121041056850311,-219.7291352942305,0.13713435113517825,0,True
44.0,-0.39981674577281484,-219.870345704799,-0.08401362043145583,0,True
44.03333333333333,-0.23274785900932693,-220.27016245057183,-0.3063284681849938,0,True
44.06666666666667,-0.31637896105842633,-220.50291030958115,-0.5467010057238605,0,True
44.1,-0.3461610702291377,-220.8192892706396,-0.7985293927536338,0,True
44.13333333333333,-0.3652241717431135,-221.16545034086872,-1.0268524238939611,0,True
44.166666666666664,-0.2508244514465332,-221.53067451261182,-1.1790189840335386,0,True
44.2,-0.3064070311541132,-221.78149896405836,-1.207906845589356,0,True
44.233333333333334,0.30536386579001296,-222.08790599521248,-1.0973731758695529,0,True
44.266666666666666,-0.22285365954337388,-221.78254212942247,-0.8761023837798146,0,True
44.3,-0.07453651101521501,-222.00539578896584,-0.6104536474312575,0,True
44.333333333333336,0.12233330887247396,-222.07993229998107,-0.37818026311708147,0,True
44.36666666666667,-0.29073320081596304,-221.9575989911086,-0.23514882208467255,0,True
44.4,-0.41716304849699437,-222.24833219192456,-0.1905557609178252,0,True
44.43333333333333,-0.38017737912665256,-222.66549524042156,-0.20351206939466712,0,True
44.46666666666667,-0.26487087099505446,-223.0456726195482,-0.20521365398691,0,True
44.5,-0.001381516456604004,-223.31054349054327,-0.13648446613849927,0,True
44.53333333333333,0.2391108258245801,-223.31192500699987,0.020763034234198213,0,True
44.56666666666667,-0.2723293365068122,-223.0728141811753,0.23682805510554733,0,True
44.6,-0.229369635427857,-223.3451435176821,0.4543016971250772,0,True
44.63333333333333,-0.3259337542324514,-223.57451315310993,0.6190747070564236,0,True
44.666666666666664,-0.2760398970939229,-223.90044690734237,0.7020530301491716,0,True
44.7,-0.20906921144111226,-224.17648680443628,0.7023457631242978,0,True
44.733333333333334,-0.34568476892660915,-224.3855560158774,0.6367580252471147,0,True
44.766666666666666,-0.38860699608244254,-224.73124078480402,0.5263615448213482,0,True
44.8,-0.3224971817730049,-225.11984778088646,,0,True
44.833333333333336,-0.23604321479797363,-225.44234496265946,,0,True
44.86666666666667,-0.2573166165521914,-225.67838817745744,,0,True
44.9,-0.3219434470441143,-225.93570479400964,,0,True
44.93333333333333,-0.2191831074949144,-226.25764824105374,,0,True
44.96666666666667,-0.3952217783885406,-226.47683134854867,,0,True
45.0,-0.34319072961807245,-226.8720531269372,,0,True
45.03333333333333,0.8993601202964783,-227.21524385655528,,0,True
45.06666666666667,-0.12080031633377075,-226.3158837362588,,0,True
45.1,-0.190809428691864,-226.43668405259257,,0,True
45.13333333333333,-0.38663911819458,-226.62749348128443,,0,True
45.166666666666664,-0.35727638006210327,-227.014132599479,,0,True
45.2,-0.34715139865875244,-227.37140897954112,,0,True
45.233333333333334,-0.15290337800979614,-227.71856037819987,,0,True
45.266666666666666,-0.4703800678253174,-227.87146375620966,,0,True
45.3,-0.4079594612121582,-228.34184382403498,,0,True
45.333333333333336,-0.0034130215644836426,-228.74980328524714,,0,True
45.36666666666667,-0.08164304494857788,-228.75321630681162,,0,True
45.4,-0.2563284635543823,-228.8348593517602,,0,True
45.43333333333333,-0.28769010305404663,-229.09118781531458,,0,True
45.46666666666667,-0.31570661067962646,-229.37887791836863,,0,True
45.5,-0.09493815898895264,-229.69458452904826,,0,True
45.53333333333333,0.28320029377937317,-229.7895226880372,,0,True
45.56666666666667,0.22248071432113647,-229.50632239425784,,0,True
45.6,0.5955588817596436,-229.2838416799367,,0,True
45.63333333333333,-0.08300578594207764,-228.68828279817706,,0,True
45.666666666666664,-0.3281025290489197,-228.77128858411913,,0,True
45.7,0.10096985101699829,-229.09939111316805,,0,True
45.733333333333334,0.4712069630622864,-228.99842126215106,,0,True
45.766666666666666,0.785477876663208,-228.52721429908877,,0,True
45.8,0.3364279866218567,-227.74173642242556,,0,True
45.833333333333336,0.8548897504806519,-227.4053084358037,,0,True
45.86666666666667,-0.16249501705169678,-226.55041868532305,,0,True
45.9,-0.4451450705528259,-226.71291370237475,,0,True
45.93333333333333,-0.3659809827804565,-227.15805877292757,,0,True
45.96666666666667,-0.25184547901153564,-227.52403975570803,,0,True
46.0,-0.27404069900512695,-227.77588523471957,,0,True
46.03333333333333,-0.2436586618423462,-228.0499259337247,,0,True
46.06666666666667,-0.23621034622192383,-228.29358459556704,,0,True
46.1,-0.14448940753936768,-228.52979494178896,,0,True
46.13333333333333,-0.1320897340774536,-228.67428434932833,,0,True
46.166666666666664,-0.10392463207244873,-228.80637408340579,,0,True
46.2,-0.33048975467681885,-228.91029871547823,,0,True
46.233333333333334,-0.3080464005470276,-229.24078847015505,,0,True
46.266666666666666,-0.4416367411613465,-229.54883487070208,,0,True
46.3,-0.34896236658096313,-229.99047161186343,,0,True
46.333333333333336,-0.42241227626800537,-230.3394339784444,,0,True
46.36666666666667,,-230.7618462547124,,0,False
