time_s,raw_network_derivative,integrated_bvp,base,segment_id,derivative_supported
0.0,,,,-1,False
0.03333333333333333,,,,-1,False
0.06666666666666667,,,,-1,False
0.1,,,,-1,False
0.13333333333333333,,,,-1,False
0.16666666666666666,,,,-1,False
0.2,,,,-1,False
0.23333333333333334,,,,-1,False
0.26666666666666666,,,,-1,False
0.3,,,,-1,False
0.3333333333333333,,,,-1,False
0.36666666666666664,,,,-1,False
0.4,,,,-1,False
0.43333333333333335,,,,-1,False
0.4666666666666667,,,,-1,False
0.5,,,,-1,False
0.5333333333333333,,,,-1,False
0.5666666666666667,,,,-1,False
0.6,,,,-1,False
0.6333333333333333,,,,-1,False
0.6666666666666666,,,,-1,False
0.7,,,,-1,False
0.7333333333333333,,,,-1,False
0.7666666666666667,,,,-1,False
0.8,,,,-1,False
0.8333333333333334,,,,-1,False
0.8666666666666667,,,,-1,False
0.9,,,,-1,False
0.9333333333333333,-0.266556978225708,0.0,,0,True
0.9666666666666667,-0.1588495969772339,-0.266556978225708,,0,True
1.0,-0.2736494541168213,-0.4254065752029419,,0,True
1.0333333333333334,-0.4044409990310669,-0.6990560293197632,,0,True
1.0666666666666667,-0.26917576789855957,-1.10349702835083,,0,True
1.1,0.08284866809844971,-1.3726727962493896,,0,True
1.1333333333333333,0.3090614676475525,-1.28982412815094,,0,True
1.1666666666666667,0.602837085723877,-0.9807626605033875,,0,True
1.2,0.7791614532470703,-0.3779255747795105,,0,True
1.2333333333333334,0.7249171137809753,0.4012358784675598,,0,True
1.2666666666666666,0.32983678579330444,1.1261529922485352,,0,True
1.3,0.05124732851982117,1.4559897780418396,,0,True
1.3333333333333333,-0.21644550561904907,1.5072371065616608,,0,True
1.3666666666666667,-0.40447998046875,1.2907916009426117,,0,True
1.4,-0.3502993583679199,0.8863116204738617,,0,True
1.4333333333333333,-0.4708373546600342,0.5360122621059418,,0,True
1.4666666666666666,-0.3661078214645386,0.06517490744590759,,0,True
1.5,-0.01213228702545166,-0.300932914018631,,0,True
1.5333333333333334,0.08886700868606566,-0.31306520104408264,,0,True
1.5666666666666667,0.6919667720794678,-0.22419819235801697,,0,True
1.6,-0.42435944080352783,0.4677685797214508,,0,True
1.6333333333333333,-0.45860838890075684,0.043409138917922974,,0,True
1.6666666666666667,-0.4295315742492676,-0.41519924998283386,,0,True
1.7,-0.4108579754829407,-0.8447308242321014,,0,True
1.7333333333333334,-0.07783150672912598,-1.2555887997150421,,0,True
1.7666666666666666,0.2909456491470337,-1.333420306444168,,0,True
1.8,0.5869043469429016,-1.0424746572971344,,0,True
1.8333333333333333,0.5707579851150513,-0.4555703103542328,,0,True
1.8666666666666667,0.12750396132469177,0.11518767476081848,,0,True
1.9,-0.24892199039459229,0.24269163608551025,,0,True
1.9333333333333333,-0.3443368673324585,-0.006230354309082031,,0,True
1.9666666666666666,-0.3477046489715576,-0.3505672216415405,,0,True
2.0,-0.3062918782234192,-0.6982718706130981,,0,True
2.033333333333333,0.02706742286682129,-1.0045637488365173,,0,True
2.066666666666667,0.2666798233985901,-0.977496325969696,,0,True
2.1,0.7463654875755309,-0.710816502571106,,0,True
2.1333333333333333,0.441210001707077,0.03554898500442494,,0,True
2.1666666666666665,-0.3731713891029358,0.47675898671150196,,0,True
2.2,-0.3772736787796021,0.10358759760856617,,0,True
2.2333333333333334,-0.4146331548690796,-0.27368608117103593,,0,True
2.2666666666666666,-0.3934208154678345,-0.6883192360401156,,0,True
2.3,-0.2491321563720703,-1.08174005150795,,0,True
2.3333333333333335,-0.20523041486740112,-1.3308722078800204,,0,True
2.3666666666666667,-0.23443186283111572,-1.5361026227474215,,0,True
2.4,-0.17192566394805908,-1.7705344855785372,,0,True
2.433333333333333,0.7115987539291382,-1.9424601495265963,,0,True
2.466666666666667,1.4260742664337158,-1.230861395597458,,0,True
2.5,1.4727979898452759,0.1952128708362577,,0,True
2.533333333333333,0.5575754046440125,1.6680108606815336,1.3285360418855858,0,True
2.566666666666667,1.0136168003082275,2.2255862653255463,2.339072952973303,0,True
2.6,-0.39326202869415283,3.239203065633774,2.899355033539399,0,True
2.6333333333333333,-0.40522438287734985,2.845941036939621,2.927644012500806,0,True
2.6666666666666665,-0.40873897075653076,2.440716654062271,2.487923709653844,0,True
2.7,-0.4240400791168213,2.0319776833057404,1.7449466464829746,0,True
2.7333333333333334,-0.47447335720062256,1.607937604188919,0.8915521895551908,0,True
2.7666666666666666,-0.4130247235298157,1.1334642469882965,0.08225695472355984,0,True
2.8,-0.3546355962753296,0.7204395234584808,-0.6028697581784322,0,True
2.8333333333333335,-0.3181636333465576,0.36580392718315125,-1.1569627463588277,0,True
2.8666666666666667,0.08701542019844055,0.04764029383659363,-1.6144302370983354,0,True
2.9,0.380889892578125,0.13465571403503418,-2.003515785697806,0,True
2.933333333333333,-0.4354507923126221,0.5155456066131592,-2.303858358777481,0,True
2.966666666666667,-0.270460844039917,0.08009481430053705,-2.4323518723989204,0,True
3.0,0.21393337845802307,-0.19036602973937994,-2.274305691363357,0,True
3.033333333333333,0.6384401917457581,0.023567348718643133,-1.7535842994593376,0,True
3.066666666666667,1.4494378566741946,0.6620075404644012,-0.9044379833887403,0,True
3.1,1.5116755962371828,2.1114453971385956,0.10460394349627582,0,True
3.1333333333333333,0.4985867738723755,3.623120993375778,1.0217421617791769,0,True
3.1666666666666665,-0.30333566665649414,4.121707767248154,1.6181250027850314,0,True
3.2,-0.4225769639015198,3.8183721005916595,1.790826119257723,0,True
3.2333333333333334,-0.43478596210479736,3.3957951366901398,1.6036402930094202,0,True
3.2666666666666666,-0.028515934944152832,2.9610091745853424,1.245727790079062,0,True
3.3,0.054100096225738525,2.9324932396411896,0.9356931912883134,0,True
3.3333333333333335,0.0016123056411743164,2.986593335866928,0.8225911609387935,0,True
3.3666666666666667,0.5690251588821412,2.9882056415081024,0.9280934809008822,0,True
3.4,0.2747771739959717,3.5572308003902435,1.1490435426696053,0,True
3.433333333333333,-0.28933089971542353,3.832007974386215,1.3125519327281165,0,True
3.466666666666667,-0.521375298500061,3.5426770746707916,1.2552021063161964,0,True
3.5,-0.5749027729034424,3.0213017761707306,0.8905401658777118,0,True
3.533333333333333,-0.601116418838501,2.446399003267288,0.23974810673777994,0,True
3.566666666666667,-0.5018725395202637,1.8452825844287872,-0.5779974535671497,0,True
3.6,-0.22774571180343628,1.3434100449085236,-1.3825584195457061,0,True
3.6333333333333333,-0.23921793699264524,1.1156643331050873,-1.9812359174321548,0,True
3.6666666666666665,-0.27318501472473145,0.876446396112442,-2.2182589757274007,0,True
3.7,-0.004451155662536621,0.6032613813877106,-2.020289825670228,0,True
3.7333333333333334,0.8414738178253174,0.598810225725174,-1.4301991566785048,0,True
3.7666666666666666,1.2442569732666016,1.4402840435504913,-0.6124582849951835,0,True
3.8,0.7043477296829224,2.684541016817093,0.18757075367157114,0,True
3.8333333333333335,-0.44745349884033203,3.3888887465000153,0.7281680074669243,0,True
3.8666666666666667,-0.4531017541885376,2.9414352476596832,0.865549793187227,0,True
3.9,-0.4826650619506836,2.4883334934711456,0.6098167580532389,0,True
3.933333333333333,-0.31957757472991943,2.005668431520462,0.11475920775841318,0,True
3.966666666666667,-0.15182942152023318,1.6860908567905426,-0.3891057406564148,0,True
4.0,-0.03904545307159423,1.5342614352703094,-0.6844477029053845,0,True
4.033333333333333,0.11076062917709349,1.4952159821987152,-0.6445644295704125,0,True
4.066666666666666,0.4750252366065979,1.6059766113758087,-0.2744586371301972,0,True
4.1,0.8053008317947387,2.0810018479824066,0.2948612621870182,0,True
4.133333333333334,0.16723251342773435,2.8863026797771454,0.8565639968378421,0,True
4.166666666666667,-0.1237747073173523,3.0535351932048798,1.2061020843026458,0,True
4.2,-0.36951076984405523,2.9297604858875275,1.2178014389397294,0,True
4.233333333333333,-0.46463167667388916,2.5602497160434723,0.889287474905158,0,True
4.266666666666667,-0.43049055337905884,2.095618039369583,0.3377660969784734,0,True
4.3,-0.41249614953994745,1.6651274859905243,-0.24692926890911376,0,True
4.333333333333333,-0.2972252964973449,1.2526313364505768,-0.6726831199151561,0,True
4.366666666666666,0.27782171964645386,0.9554060399532318,-0.8135839696121087,0,True
4.4,0.2602896094322204,1.2332277595996857,-0.653066774877609,0,True
4.433333333333334,0.3686144053936005,1.4935173690319061,-0.28612363685122216,0,True
4.466666666666667,0.328113853931427,1.8621317744255066,0.12076350602097528,0,True
4.5,0.051366865634918206,2.1902456283569336,0.39670231746263646,0,True
4.533333333333333,-0.5237629413604736,2.241612493991852,0.43376319878856967,0,True
4.566666666666666,-0.4965205192565918,1.7178495526313782,0.22694763340702076,0,True
4.6,-0.12569141387939456,1.2213290333747864,-0.12960367426692396,0,True
4.633333333333334,-0.2344847917556763,1.0956376194953918,-0.48616715268079724,0,True
4.666666666666667,-0.09490525722503662,0.8611528277397156,-0.6990139790493006,0,True
4.7,0.1287359893321991,0.766247570514679,-0.6842207065339889,0,True
4.733333333333333,0.19741302728652954,0.894983559846878,-0.44581708893001665,0,True
4.766666666666667,0.09454548358917235,1.0923965871334076,-0.07114578671802511,0,True
4.8,0.6027638912200928,1.18694207072258,0.30404358102678664,0,True
4.833333333333333,-0.17518150806427005,1.7897059619426727,0.5493369849985729,0,True
4.866666666666666,-0.41252255439758306,1.6145244538784027,0.5929196138082877,0,True
4.9,-0.5130614042282104,1.2020018994808197,0.4512045083744392,0,True
4.933333333333334,-0.32267135381698603,0.6889404952526093,0.21856072967771872,0,True
4.966666666666667,-0.14686053991317752,0.3662691414356232,0.020362289970170918,0,True
5.0,0.06275969743728638,0.2194086015224457,-0.04702870909127024,0,True
5.033333333333333,0.1771385669708252,0.28216829895973206,0.04067299303680729,0,True
5.066666666666666,-0.05295681953430175,0.45930686593055725,0.2289491996498608,0,True
5.1,-0.010525941848754881,0.4063500463962555,0.4141208695677121,0,True
5.133333333333334,-0.31767648458480835,0.3958241045475006,0.4925363265745106,0,True
5.166666666666667,-0.49980711936950684,0.07814761996269226,0.40585650095929365,0,True
5.2,-0.3953396081924438,-0.4216594994068146,0.16369667659428855,0,True
5.233333333333333,-0.4185879230499267,-0.8169991075992584,-0.16308576051751927,0,True
5.266666666666667,-0.24347800016403198,-1.2355870306491852,-0.4719489829730024,0,True
5.3,-0.10106194019317626,-1.4790650308132172,-0.6664614163690499,0,True
5.333333333333333,-0.0881471037864685,-1.5801269710063934,-0.6877269188641724,0,True
5.366666666666666,0.039505720138549805,-1.668274074792862,-0.530651294837602,0,True
5.4,0.12977993488311768,-1.6287683546543121,-0.24319050856062235,0,True
5.433333333333334,-0.29466366767883295,-1.4989884197711945,0.08865622333706392,0,True
5.466666666666667,0.4868553876876831,-1.7936520874500275,0.3656191812669876,0,True
5.5,-0.19935262203216553,-1.3067966997623444,0.5049716709847926,0,True
5.533333333333333,-0.4101324081420898,-1.5061493217945099,0.4692894718141655,0,True
5.566666666666666,-0.4091379642486572,-1.9162817299365997,0.2841312154594048,0,True
5.6,-0.292857825756073,-2.325419694185257,0.03337587998196566,0,True
5.633333333333334,-0.2726823091506958,-2.61827751994133,-0.1707955902992795,0,True
5.666666666666667,-0.021461009979248043,-2.8909598290920258,-0.23272119959267987,0,True
5.7,0.2975083589553833,-2.912420839071274,-0.11401539425078264,0,True
5.733333333333333,0.11887943744659424,-2.6149124801158905,0.14745278458606428,0,True
5.766666666666667,0.022969067096710205,-2.4960330426692963,0.4490576014763497,0,True
5.8,-0.03446006774902344,-2.473063975572586,0.6610182543743559,0,True
5.833333333333333,-0.17219066619873044,-2.5075240433216095,0.6752939810028913,0,True
5.866666666666666,-0.43402910232543945,-2.67971470952034,0.44802795685862334,0,True
5.9,-0.42987722158432007,-3.1137438118457794,0.020908480578436146,0,True
5.933333333333334,-0.44244080781936646,-3.5436210334300995,-0.4870327599660775,0,True
5.966666666666667,-0.22551780939102173,-3.986061841249466,-0.9168992913902771,0,True
6.0,-0.17437052726745605,-4.211579650640488,-1.1261142165789992,0,True
6.033333333333333,0.2440142631530762,-4.385950177907944,-1.044454699510389,0,True
6.066666666666666,0.6175726652145386,-4.1419359147548676,-0.7080720568370154,0,True
6.1,0.2547639012336731,-3.524363249540329,-0.2542235307400659,0,True
6.133333333333334,0.28850385546684265,-3.269599348306656,0.1268273001532074,0,True
6.166666666666667,-0.2568192481994629,-2.9810954928398132,0.26695083469499586,0,True
6.2,-0.3613141775131226,-3.237914741039276,0.09201746172976495,0,True
6.233333333333333,-0.4181441068649292,-3.5992289185523987,-0.340471310098674,0,True
6.266666666666667,-0.3225301504135132,-4.017373025417328,-0.8555776493437588,0,True
6.3,-0.3409003019332886,-4.339903175830841,-1.2241487695384585,0,True
6.333333333333333,0.002259492874145508,-4.68080347776413,-1.253250028062605,0,True
6.366666666666666,0.9459900856018066,-4.678543984889984,-0.8695881751577456,0,True
6.4,1.099128842353821,-3.7325538992881775,-0.15906892722785768,0,True
6.433333333333334,0.6551446318626404,-2.6334250569343567,0.6614316620617509,0,True
6.466666666666667,0.03185081481933594,-1.9782804250717163,1.3331504934204803,0,True
6.5,-0.388370931148529,-1.9464296102523804,1.6642894708280105,0,True
6.533333333333333,-0.30424439907073975,-2.3348005414009094,1.6054507495706725,0,True
6.566666666666666,-0.39344203472137446,-2.639044940471649,1.2583722460248705,0,True
6.6,-0.2876574993133545,-3.0324869751930237,0.8204833972184388,0,True
6.633333333333334,-0.13613033294677737,-3.320144474506378,0.4955270873283108,0,True
6.666666666666667,0.04305863380432129,-3.4562748074531555,0.4092682855807966,0,True
6.7,0.6776543259620667,-3.4132161736488342,0.5626352986141723,0,True
6.733333333333333,0.030720114707946777,-2.7355618476867676,0.8388516246126471,0,True
6.766666666666667,0.02204382419586182,-2.704841732978821,1.0597262168047379,0,True
6.8,-0.5659085512161254,-2.682797908782959,1.0651841983940098,0,True
6.833333333333333,-0.45033353567123413,-3.2487064599990845,0.7806267085548368,0,True
6.866666666666666,-0.39840722084045416,-3.6990399956703186,0.2456479589435804,0,True
6.9,-0.32493746280670166,-4.097447216510773,-0.4020293972013366,0,True
6.933333333333334,-0.3131038546562195,-4.422384679317474,-0.976104274417348,0,True
6.966666666666667,-0.340988039970398,-4.735488533973694,-1.306630799546533,0,True
7.0,0.015314161777496338,-5.076476573944092,-1.3023277372693582,0,True
7.033333333333333,0.7057576179504395,-5.0611624121665955,-0.9917552192148552,0,True
7.066666666666666,0.6522161364555359,-4.355404794216156,-0.5240882207808212,0,True
7.1,0.37329420447349543,-3.70318865776062,-0.11874528570772873,0,True
7.133333333333334,-0.4600319862365722,-3.3298944532871246,0.023832604056651076,0,True
7.166666666666667,-0.44666624069213867,-3.789926439523697,-0.18745812708211204,0,True
7.2,-0.389997959136963,-4.236592680215836,-0.6870989501771984,0,True
7.233333333333333,-0.30575805902481074,-4.6265906393527985,-1.2729888574297936,0,True
7.266666666666667,-0.1668685674667358,-4.932348698377609,-1.6860148801702153,0,True
7.3,0.22433203458786008,-5.099217265844345,-1.716836979153005,0,True
7.333333333333333,0.7292225956916808,-4.874885231256485,-1.297822069930592,0,True
7.366666666666666,1.2315762042999268,-4.145662635564804,-0.5412684268701868,0,True
7.4,1.2824113368988037,-2.9140864312648773,0.2983823629615333,0,True
7.433333333333334,-0.13932025432586673,-1.6316750943660736,0.9296710891295774,0,True
7.466666666666667,-0.4421471357345581,-1.7709953486919403,1.1518251064887448,0,True
7.5,-0.4877917766571045,-2.2131424844264984,0.9421526626905515,0,True
7.533333333333333,-0.3401435613632202,-2.700934261083603,0.4592962336971117,0,True
7.566666666666666,0.47075462341308594,-3.041077822446823,-0.03489774603583788,0,True
7.6,-0.22645145654678348,-2.570323199033737,-0.2917499153100636,0,True
7.633333333333334,0.43756023049354553,-2.7967746555805206,-0.1770700008833016,0,True
7.666666666666667,0.8090685606002807,-2.359214425086975,0.28020451865669327,0,True
7.7,1.4389588832855222,-1.5501458644866943,0.9068011543023237,0,True
7.733333333333333,0.25766307115554815,-0.1111869812011721,1.4640687910922967,0,True
7.766666666666667,-0.4518579840660095,0.14647608995437605,1.7549993974370397,0,True
7.8,-0.4807627201080322,-0.30538189411163347,1.7074884806318191,0,True
7.833333333333333,-0.3001970648765564,-0.7861446142196657,1.3898274650822442,0,True
7.866666666666666,-0.11984384059906007,-1.0863416790962221,0.9541884215990679,0,True
7.9,0.4796772599220276,-1.2061855196952822,0.5468119067790724,0,True
7.933333333333334,-0.1467536091804504,-0.7265082597732546,0.23776560348217193,0,True
7.966666666666667,-0.2104994058609009,-0.8732618689537051,0.003446173420979832,0,True
8.0,-0.12205696105957031,-1.083761274814606,-0.23927296467582437,0,True
8.033333333333333,-0.07696956396102905,-1.2058182358741762,-0.5729062243380247,0,True
8.066666666666666,-0.3108779788017273,-1.2827877998352053,-1.0234886991275935,0,True
8.1,-0.42032885551452626,-1.5936657786369326,-1.531808497454401,0,True
8.133333333333333,-0.22170490026474,-2.0139946341514587,-1.9643917329818745,0,True
8.166666666666666,-0.11015248298645018,-2.2356995344161987,-2.163342458705062,0,True
8.2,0.9120731353759763,-2.345852017402649,-2.0165900416615186,0,True
8.233333333333333,0.7073610424995422,-1.4337788820266726,-1.5167322054927168,0,True
8.266666666666667,0.41859990358352667,-0.7264178395271303,-0.7786217851628309,0,True
8.3,0.7101956009864806,-0.3078179359436037,-0.0051881642024683315,0,True
8.333333333333334,0.4001185894012451,0.4023776650428769,0.5847850365680405,0,True
8.366666666666667,-0.045885324478149414,0.8024962544441221,0.8388147927922284,0,True
8.4,-0.41537249088287354,0.7566109299659727,0.7319190975616399,0,True
8.433333333333334,-0.41721397638320923,0.34123843908309914,0.3810218916348334,0,True
8.466666666666667,-0.34131097793579107,-0.07597553730011009,0.0015732545114918413,0,True
8.5,-0.15549892187118527,-0.41728651523590116,-0.18068310657943756,0,True
8.533333333333333,0.6014169454574584,-0.5727854371070864,-0.027513774697511543,0,True
8.566666666666666,1.1644525527954102,0.02863150835037198,0.44833342581219515,0,True
8.6,0.395628958940506,1.193084061145782,1.0861171728342813,0,True
8.633333333333333,-0.029021441936492916,1.588713020086288,1.6473937566316794,0,True
8.666666666666666,-0.3921165466308594,1.559691578149795,1.918542298331123,0,True
8.7,-0.49708294868469244,1.1675750315189357,1.794970429186323,0,True
8.733333333333333,-0.47107958793640126,0.6704920828342433,1.3123251190116203,0,True
8.766666666666667,-0.5209767818450928,0.19941249489784207,0.6213517187652285,0,True
8.8,-0.37429749965667725,-0.3215642869472507,-0.07349285851040495,0,True
8.833333333333334,-0.3330582380294799,-0.695861786603928,-0.5848418304353428,0,True
8.866666666666667,0.20947819948196414,-1.0289200246334078,-0.8004117745975178,0,True
8.9,-0.0009278059005737304,-0.8194418251514437,-0.71379287401328,0,True
8.933333333333334,0.03180426359176636,-0.8203696310520174,-0.42149860501361186,0,True
8.966666666666667,0.5440656542778015,-0.7885653674602511,-0.0877423220682962,0,True
9.0,0.15309810638427734,-0.24449971318244956,0.1143351249402474,0,True
9.033333333333333,-0.351871132850647,-0.09140160679817222,0.06944367858321562,0,True
9.066666666666666,-0.4871857166290283,-0.4432727396488192,-0.22831568445985495,0,True
9.1,-0.4839088916778565,-0.9304584562778475,-0.6646837456931695,0,True
9.133333333333333,-0.3317797780036926,-1.414367347955704,-1.0476667335595686,0,True
9.166666666666666,0.01647853851318359,-1.7461471259593966,-1.190012971842142,0,True
9.2,0.9436584711074829,-1.729668587446213,-0.9962059036791965,0,True
9.233333333333333,0.5352636575698853,-0.7860101163387301,-0.512592264432363,0,True
9.266666666666667,0.5013495087623596,-0.2507464587688448,0.08520583280251433,0,True
9.3,0.06721872091293335,0.2506030499935148,0.5625651517995534,0,True
9.333333333333334,-0.3963434696197509,0.31782177090644814,0.7205402313971621,0,True
9.366666666666667,-0.46257996559143066,-0.07852169871330278,0.47324927897432123,0,True
9.4,-0.4306992888450623,-0.5411016643047335,-0.12079191696414276,0,True
9.433333333333334,-0.4550135135650635,-0.9718009531497958,-0.8794594577117019,0,True
9.466666666666667,-0.3344289064407349,-1.4268144667148592,-1.5569336210961098,0,True
9.5,0.28804412484169006,-1.761243373155594,-1.9209713659023122,0,True
9.533333333333333,0.4426881670951842,-1.473199248313904,-1.8250510442597272,0,True
9.566666666666666,0.1854373216629028,-1.03051108121872,-1.2559900237231036,0,True
9.6,1.2855491638183592,-0.8450737595558171,-0.34362718577539303,0,True
9.633333333333333,1.1377363204956057,0.44047540426254206,0.6732653691808241,0,True
9.666666666666666,0.5277337431907654,1.5782117247581477,1.5212193876985747,0,True
9.7,-0.381263792514801,2.105945467948913,1.9866977624894906,0,True
9.733333333333333,-0.4078841209411621,1.724681675434112,1.993542814046632,0,True
9.766666666666667,-0.43330472707748413,1.31679755449295,1.6258127553165052,0,True
9.8,-0.3613292574882507,0.8834928274154659,1.0846315331248433,0,True
9.833333333333334,-0.23895335197448733,0.5221635699272151,0.6009903426156749,0,True
9.866666666666667,0.24032300710678103,0.2832102179527278,0.34416960163118576,0,True
9.9,0.136605441570282,0.5235332250595088,0.3624495367744317,0,True
9.933333333333334,0.4491652846336365,0.6601386666297908,0.5763127118593985,0,True
9.966666666666667,0.03651553392410278,1.1093039512634273,0.8224647478971923,0,True
10.0,-0.38106614351272583,1.14581948518753,0.9271960289888777,0,True
10.033333333333333,-0.40465188026428217,0.7647533416748042,0.7773918109317404,0,True
10.066666666666666,-0.46947395801544184,0.3601014614105221,0.3616127059004969,0,True
10.1,-0.4327857494354248,-0.10937249660491977,-0.23013493683489097,0,True
10.133333333333333,-0.3683227300643921,-0.5421582460403446,-0.8413466510041434,0,True
10.166666666666666,-0.11599946022033691,-0.9104809761047367,-1.3023281413219259,0,True
10.2,-0.0071647167205810556,-1.0264804363250737,-1.484778713160357,0,True
10.233333333333333,-0.1041593551635742,-1.0336451530456547,-1.343859270962454,0,True
10.266666666666667,0.3349059224128723,-1.137804508209229,-0.9374266068437638,0,True
10.3,1.03332781791687,-0.8028985857963566,-0.4144511852121742,0,True
10.333333333333334,0.048692047595977776,0.23042923212051325,0.03130141055918857,0,True
10.366666666666667,-0.3124605417251587,0.27912127971649103,0.2336560422448749,0,True
10.4,-0.463594913482666,-0.03333926200866766,0.1247627002065779,0,True
10.433333333333334,-0.38716512918472296,-0.4969341754913337,-0.2310636600788758,0,True
10.466666666666667,-0.2781243920326233,-0.8840993046760566,-0.6594166244308599,0,True
10.5,-0.1933801174163818,-1.1622236967086799,-0.9449105151777198,0,True
10.533333333333333,0.31066340208053583,-1.3556038141250617,-0.9184957668422569,0,True
10.566666666666666,0.5173914432525635,-1.0449404120445258,-0.5285027516730011,0,True
10.6,0.8617069125175477,-0.5275489687919623,0.13305405500598033,0,True
10.633333333333333,0.6119508147239685,0.3341579437255854,0.8615307104422051,0,True
10.666666666666666,-0.015227317810058594,0.9461087584495539,1.4175910149268678,0,True
10.7,-0.41533094644546514,0.9308814406394953,1.6197611414887205,0,True
10.733333333333333,-0.5036368370056152,0.5155504941940301,1.411509593644615,0,True
10.766666666666667,-0.5085787773132323,0.011913657188414861,0.875821471249218,0,True
10.8,-0.3502798080444336,-0.49666512012481745,0.19646649319361023,0,True
10.833333333333334,-0.17984759807586673,-0.846944928169251,-0.41258235711215024,0,True
10.866666666666667,-0.09051889181137085,-1.0267925262451179,-0.7808027292006804,0,True
10.9,-0.1026495099067688,-1.1173114180564887,-0.8347640611760584,0,True
10.933333333333334,0.21976518630981443,-1.2199609279632575,-0.6188593661507852,0,True
10.966666666666667,0.8134260177612306,-1.000195741653443,-0.27822672052406516,0,True
11.0,-0.0022531747817993164,-0.18676972389221247,-0.0053561027568848315,0,True
11.033333333333333,-0.1776610016822815,-0.18902289867401179,0.03700614077095167,0,True
11.066666666666666,-0.49038183689117437,-0.3666839003562933,-0.21130756913421733,0,True
11.1,-0.4258595705032348,-0.8570657372474677,-0.6731638420297331,0,True
11.133333333333333,-0.28520679473876953,-1.2829253077507026,-1.1573051261642298,0,True
11.166666666666666,-0.24338722229003906,-1.568132102489472,-1.432860923059122,0,True
11.2,0.8015039563179015,-1.8115193247795112,-1.325621172102531,0,True
11.233333333333333,0.4437083601951599,-1.0100153684616098,-0.7960414018786248,0,True
11.266666666666667,1.1491159200668337,-0.5663070082664499,0.035636761666572425,0,True
11.3,0.8724437952041625,0.5828089118003839,0.9308742758698738,0,True
11.333333333333334,0.04292207956314087,1.4552527070045462,1.6256364265077974,0,True
11.366666666666667,-0.4440733790397644,1.498174786567687,1.9345784981821064,0,True
11.4,-0.48016250133514404,1.0541014075279227,1.8192047967233804,0,True
11.433333333333334,-0.46325922012329107,0.5739389061927787,1.3899884427558717,0,True
11.466666666666667,-0.2922046184539795,0.11067968606948758,0.8468479636204235,0,True
11.5,0.027811408042907715,-0.1815249323844919,0.39140449809096634,0,True
11.533333333333333,0.1432138681411743,-0.1537135243415842,0.15170614203470992,0,True
11.566666666666666,-0.025873661041259766,-0.010499656200409907,0.14689809123779718,0,True
11.6,0.022959887981414795,-0.03637331724166967,0.29717575212711894,0,True
11.633333333333333,0.1660552620887756,-0.013413429260254878,0.4660363122058811,0,True
11.666666666666666,-0.14391827583312986,0.15264183282852073,0.5149490679519152,0,True
11.7,-0.4688620567321778,0.008723556995390874,0.3528030452275467,0,True
11.733333333333333,-0.3081370592117309,-0.4601384997367869,-0.03293612691269318,0,True
11.766666666666667,-0.3433189392089844,-0.7682755589485177,-0.57100500314775,0,True
11.8,-0.27491456270217896,-1.111594498157502,-1.1270914377582344,0,True
11.833333333333334,-0.12653672695159912,-1.386509060859681,-1.5437777211740227,0,True
11.866666666666667,0.05364874005317689,-1.5130457878112802,-1.6898792761814594,0,True
11.9,-0.2588235139846802,-1.4593970477581033,-1.5078861000462056,0,True
11.933333333333334,0.9392890334129333,-1.7182205617427835,-1.0453736724692395,0,True
11.966666666666667,0.9500280022621155,-0.7789315283298501,-0.4535911035416537,0,True
12.0,0.28028255701065063,0.17109647393226535,0.058675873798097675,0,True
12.033333333333333,-0.190413773059845,0.451379030942916,0.3077263730373003,0,True
12.066666666666666,-0.3790123462677002,0.260965257883071,0.21879280264550358,0,True
12.1,-0.4868803024291992,-0.11804708838462918,-0.13345198192842891,0,True
12.133333333333333,-0.36252558231353754,-0.6049273908138284,-0.552085270265292,0,True
12.166666666666666,0.1837089657783508,-0.967452973127366,-0.8022979394188089,0,True
12.2,0.641948699951172,-0.7837440073490152,-0.7147093097354584,0,True
12.233333333333333,0.323634684085846,-0.14179530739784318,-0.2611684561752128,0,True
12.266666666666667,1.2694759368896484,0.18183937668800282,0.4300958186622714,0,True
12.3,0.46844950318336487,1.4513153135776513,1.1258085968719478,0,True
12.333333333333334,-0.3522080183029174,1.9197648167610162,1.5827604717555934,0,True
12.366666666666667,-0.41677331924438477,1.5675567984580987,1.6446940954507043,0,True
12.4,-0.4582133293151856,1.150783479213714,1.298566450661779,0,True
12.433333333333334,-0.30367100238800043,0.6925701498985284,0.6703472684002242,0,True
12.466666666666667,-0.2603391408920288,0.38889914751052795,-0.02854802008397923,0,True
12.5,-0.07876467704772948,0.12856000661849915,-0.5760064474909031,0,True
12.533333333333333,-0.09348762035369873,0.04979532957076967,-0.8090712220560163,0,True
12.566666666666666,-0.29413580894470215,-0.043692290782929064,-0.6728134525009194,0,True
12.6,1.264706254005432,-0.3378280997276312,-0.23857677582982484,0,True
12.633333333333333,0.8208826780319215,0.9268781542778006,0.3169673131284436,0,True
12.666666666666666,-8.475780487060546e-05,1.747760832309722,0.7747220147386746,0,True
12.7,-0.409271776676178,1.7476760745048514,0.9604046095351049,0,True
12.733333333333333,-0.4370059370994568,1.3384042978286734,0.816181031551925,0,True
12.766666666666667,-0.3832458257675171,0.9013983607292166,0.4191421668080476,0,True
12.8,-0.23554122447967527,0.5181525349616996,-0.061082593766470454,0,True
12.833333333333334,-0.11489641666412354,0.28261131048202426,-0.44144207544987213,0,True
12.866666666666667,0.08058667182922365,0.16771489381790072,-0.6039876424138536,0,True
12.9,-0.3002820014953613,0.24830156564712436,-0.5421624800916669,0,True
12.933333333333334,1.0001142024993896,-0.05198043584823692,-0.35835558697274045,0,True
12.966666666666667,0.028198480606079105,0.9481337666511527,-0.21320793541072644,0,True
13.0,-0.4380553960800171,0.9763322472572318,-0.24470922233792236,0,True
13.033333333333333,-0.45724439620971674,0.5382768511772147,-0.49233643551279077,0,True
13.066666666666666,-0.4453906416893006,0.08103245496749795,-0.8664008098790908,0,True
13.1,-0.3389435410499573,-0.36435818672180265,-1.18295607210416,0,True
13.133333333333333,0.1739911437034607,-0.7033017277717599,-1.2495544025550205,0,True
13.166666666666666,1.0705062150955198,-0.5293105840682992,-0.9599561781450251,0,True
13.2,0.7662624120712281,0.5411956310272206,-0.3506971278921513,0,True
13.233333333333333,0.0985891819000244,1.3074580430984488,0.408444597790786,0,True
13.266666666666667,0.5854276418685913,1.4060472249984732,1.0834028292598812,0,True
13.3,-0.04251980781555176,1.9914748668670645,1.469238545198864,0,True
13.333333333333334,-0.3781549930572509,1.9489550590515128,1.4678010928887415,0,True
13.366666666666667,-0.4439183473587036,1.5708000659942618,1.1217437726950386,0,True
13.4,-0.4558439254760742,1.1268817186355582,0.5943904988369896,0,True
13.433333333333334,-0.301758885383606,0.671037793159484,0.10376595815436428,0,True
13.466666666666667,0.05558890104293823,0.36927890777587796,-0.16369675967095018,0,True
13.5,0.6802564859390258,0.4248678088188162,-0.12581119233833202,0,True
13.533333333333333,0.28209856152534485,1.105124294757842,0.16556110999292023,0,True
13.566666666666666,0.1382775902748108,1.3872228562831868,0.5492179818981497,0,True
13.6,0.15517804026603702,1.5255004465579975,0.8218399712788819,0,True
13.633333333333333,-0.1407606601715088,1.6806784868240345,0.8191552640546371,0,True
13.666666666666666,-0.38378453254699707,1.5399178266525257,0.480878662971119,0,True
13.7,-0.4447304606437683,1.1561332941055287,-0.12212299620958883,0,True
13.733333333333333,-0.44425261020660406,0.7114028334617604,-0.8080586459476443,0,True
13.766666666666667,-0.2159844636917114,0.2671502232551563,-1.347290940314662,0,True
13.8,0.2757854461669922,0.05116575956344491,-1.5483870832717026,0,True
13.833333333333334,0.7826443910598754,0.3269512057304371,-1.335814215012804,0,True
13.866666666666667,0.8326759338378906,1.1095955967903124,-0.7868851438036435,0,True
13.9,0.5689050555229187,1.942271530628203,-0.10908328277644504,0,True
13.933333333333334,0.38892710208892817,2.5111765861511217,0.43641025020970303,0,True
13.966666666666667,0.10389357805252077,2.90010368824005,0.63572508718655,0,True
14.0,-0.25971519947051996,3.0039972662925707,0.40858472784546246,0,True
14.033333333333333,-0.38179218769073486,2.7442820668220507,-0.15362308549826312,0,True
14.066666666666666,-0.36208581924438477,2.362489879131316,-0.8147850795013971,0,True
14.1,0.23056823015213007,2.000404059886931,-1.2801158130876704,0,True
14.133333333333333,0.31518515944480896,2.230972290039061,-1.3122006318257646,0,True
14.166666666666666,1.2029732465744016,2.54615744948387,-0.832747378273698,0,True
14.2,1.3820836544036863,3.7491306960582715,0.03333835732033882,0,True
14.233333333333333,1.03204882144928,5.131214350461958,0.9956477748927938,0,True
14.266666666666667,0.4451670646667481,6.163263171911238,1.7085392637578374,0,True
14.3,-0.20131051540374756,6.608430236577986,1.9104411484822441,0,True
14.333333333333334,-0.4278564453125,6.407119721174238,1.5323538566091266,0,True
14.366666666666667,-0.39298224449157715,5.979263275861738,0.7286698053579618,0,True
14.4,-0.33179545402526855,5.586281031370161,-0.1820310704425934,0,True
14.433333333333334,0.03364384174346924,5.254485577344893,-0.8415932532952898,0,True
14.466666666666667,0.6727696061134338,5.288129419088362,-0.9936965331123268,0,True
14.5,1.1761587858200073,5.960899025201796,-0.5875517851967266,0,True
14.533333333333333,1.202101230621338,7.137057811021803,0.198537822298196,0,True
14.566666666666666,1.4931418895721438,8.339159041643141,1.0273859646319858,0,True
14.6,-0.18516373634338376,9.832300931215284,1.541979932129182,0,True
14.633333333333333,-0.4197954535484313,9.6471371948719,1.5153491359552396,0,True
14.666666666666666,-0.35392200946807856,9.22734174132347,0.9442958335488567,0,True
14.7,-0.2926515340805053,8.87341973185539,0.04578975936327896,0,True
14.733333333333333,-0.10351252555847165,8.580768197774885,-0.837730053514965,0,True
14.766666666666667,0.3731939792633056,8.477255672216414,-1.3790679606375915,0,True
14.8,0.846697211265564,8.85044965147972,-1.395607459309324,0,True
14.833333333333334,1.0108060836791992,9.697146862745283,-0.9197574961306897,0,True
14.866666666666667,0.8503178358078004,10.707952946424482,-0.1857672497193411,0,True
14.9,1.4045227766036987,11.558270782232283,0.462503237504952,0,True
14.933333333333334,-0.3416065573692322,12.962793558835982,0.7100006339395449,0,True
14.966666666666667,-0.32344245910644537,12.62118700146675,0.40280324221945535,0,True
15.0,-0.41668057441711426,12.297744542360304,-0.38067893078319454,0,True
15.033333333333333,-0.37036383152008057,11.88106396794319,-1.3530818586754139,0,True
15.066666666666666,-0.2189795970916748,11.51070013642311,-2.1291601585355804,0,True
15.1,0.8836085796356201,11.291720539331434,-2.3801246296087006,0,True
15.133333333333333,1.3497447967529297,12.175329118967054,-1.9687467864817527,0,True
15.166666666666666,1.4260123968124387,13.525073915719984,-1.0082580092150621,0,True
15.2,1.5827901363372805,14.951086312532423,0.1827322685405892,0,True
15.233333333333333,1.2791088819503784,16.533876448869705,1.2126600241384844,0,True
15.266666666666667,-0.3858081102371216,17.812985330820084,1.7802861646980226,0,True
15.3,-0.39966535568237305,17.427177220582962,1.795446389921113,0,True
15.333333333333334,-0.22471970319747922,17.02751186490059,1.4003607687791126,0,True
15.366666666666667,-0.09908604621887207,16.80279216170311,0.8829616836849515,0,True
15.4,0.642463207244873,16.703706115484238,0.5296758177578363,0,True
15.433333333333334,1.123230218887329,17.34616932272911,0.4933626539751666,0,True
15.466666666666667,0.5950219035148621,18.46939954161644,0.7377202968867091,0,True
15.5,0.006450235843658447,19.064421445131302,1.075134875467318,0,True
15.533333333333333,0.08287438750267029,19.07087168097496,1.2674911548183148,0,True
15.566666666666666,0.1549912393093109,19.15374606847763,1.136222439231495,0,True
15.6,-0.36431783437728876,19.30873730778694,0.6372027347049973,0,True
15.633333333333333,-0.4101026058197022,18.944419473409653,-0.11995583823110403,0,True
15.666666666666666,-0.31948375701904297,18.53431686758995,-0.9095648466516243,0,True
15.7,-0.13471126556396484,18.214833110570908,-1.4721315119707252,0,True
15.733333333333333,0.4864409565925598,18.080121845006943,-1.614604287571029,0,True
15.766666666666667,1.1026393175125124,18.566562801599503,-1.2909808949098935,0,True
15.8,1.0321519374847412,19.669202119112015,-0.6275676269003423,0,True
15.833333333333334,0.5557427406311034,20.701354056596756,0.12291569628577444,0,True
15.866666666666667,0.638692855834961,21.25709679722786,0.6822467283950702,0,True
15.9,-0.07349467277526857,21.89578965306282,0.8598795338307382,0,True
15.933333333333334,-0.4061334133148193,21.822294980287552,0.6296507659500453,0,True
15.966666666666667,-0.3248164057731629,21.416161566972733,0.13671966970017757,0,True
16.0,-0.2803772687911988,21.09134516119957,-0.36971331912914773,0,True
16.033333333333335,0.3668239116668701,20.81096789240837,-0.6500408990251987,0,True
16.066666666666666,0.9695808887481691,21.17779180407524,-0.5837752110055373,0,True
16.1,0.6516249775886536,22.14737269282341,-0.2242199596915144,0,True
16.133333333333333,0.6283249258995056,22.798997670412064,0.22747023260481977,0,True
16.166666666666668,-0.14390432834625244,23.42732259631157,0.5157334955010214,0,True
16.2,0.003410279750823975,23.283418267965317,0.44734744597026543,0,True
16.233333333333334,-0.27153646945953364,23.28682854771614,-0.01949271221884777,0,True
16.266666666666666,-0.3734104633331299,23.015292078256607,-0.7484670111176915,0,True
16.3,-0.3333407640457153,22.641881614923477,-1.4698734462389236,0,True
16.333333333333332,-0.0491642951965332,22.308540850877762,-1.8818769640376447,0,True
16.366666666666667,0.8542113304138184,22.25937655568123,-1.7734025483623677,0,True
16.4,1.4637695550918577,23.113587886095047,-1.1205269631866333,0,True
16.433333333333334,1.3788145780563354,24.577357441186905,-0.11101925292810624,0,True
16.466666666666665,0.832728147506714,25.95617201924324,0.921408281238681,0,True
16.5,0.2099570035934448,26.788900166749954,1.6288147645436202,0,True
16.533333333333335,-0.22534596920013428,26.9988571703434,1.7886839074193233,0,True
16.566666666666666,-0.4886384010314941,26.773511201143265,1.3902664856975961,0,True
16.6,-0.3614658117294312,26.28487280011177,0.6333455676675288,0,True
16.633333333333333,-0.2515314221382141,25.92340698838234,-0.1557549390069141,0,True
16.666666666666668,-0.11012518405914307,25.671875566244125,-0.6543343589766114,0,True
16.7,1.1225697994232178,25.561750382184982,-0.668501636190827,0,True
16.733333333333334,0.9927273988723756,26.6843201816082,-0.20550827328147012,0,True
16.766666666666666,0.7264225482940673,27.677047580480576,0.5349650143098,0,True
16.8,0.6724681258201599,28.403470128774643,1.2458028299472153,0,True
16.833333333333332,-0.006608009338378905,29.075938254594803,1.6362077155023036,0,True
16.866666666666667,-0.4888367652893067,29.069330245256424,1.5425113912334658,0,True
16.9,-0.40002167224884033,28.580493479967117,0.9841659371587453,0,True
16.933333333333334,-0.2684190273284912,28.180471807718277,0.14840909659802584,0,True
16.966666666666665,-0.21987748146057132,27.912052780389786,-0.6843784760356366,0,True
17.0,-0.2629458904266357,27.692175298929214,-1.243474229268863,0,True
17.033333333333335,0.6426553726196289,27.42922940850258,-1.3634476156321564,0,True
17.066666666666666,0.7586145997047424,28.071884781122208,-1.0424336074556737,0,True
17.1,0.8300946950912474,28.83049938082695,-0.44229100564902263,0,True
17.133333333333333,0.6534402370452881,29.660594075918198,0.17321604956814732,0,True
17.166666666666668,0.24159374833106995,30.314034312963486,0.5422179513240405,0,True
17.2,-0.23859667778015134,30.555628061294556,0.5109436758453495,0,True
17.233333333333334,-0.3894087076187134,30.317031383514404,0.09889403930253364,0,True
17.266666666666666,-0.1398944854736328,29.92762267589569,-0.5057114710379427,0,True
17.3,-0.2880997061729431,29.787728190422058,-1.0211068254290048,0,True
17.333333333333332,0.36344999074935913,29.499628484249115,-1.1895942552641983,0,True
17.366666666666667,1.1208081245422363,29.863078474998474,-0.8909013381864066,0,True
17.4,1.1005426645278928,30.98388659954071,-0.20289535153584964,0,True
17.433333333333334,0.8895970582962035,32.0844292640686,0.6206156257436555,0,True
17.466666666666665,0.482785701751709,32.97402632236481,1.2500761937652118,0,True
17.5,-0.26855963468551636,33.456812024116516,1.416898281987556,0,True
17.533333333333335,-0.5342278480529784,33.188252389431,1.0278722965377918,0,True
17.566666666666666,-0.5274136066436769,32.65402454137802,0.20884729556250492,0,True
17.6,-0.21890616416931152,32.126610934734344,-0.7395477671892994,0,True
17.633333333333333,-0.21833765506744382,31.907704770565033,-1.4551932085645283,0,True
17.666666666666668,0.6801916360855101,31.68936711549759,-1.6525913476312037,0,True
17.7,1.1202774047851562,32.3695587515831,-1.2342069344300821,0,True
17.733333333333334,1.2626836299896238,33.489836156368256,-0.3324583364969109,0,True
17.766666666666666,1.2918002605438232,34.75251978635788,0.7366689377673371,0,True
17.8,0.6953326463699341,36.0443200469017,1.5936316995180781,0,True
17.833333333333332,-0.3238349556922912,36.73965269327164,1.942532458681407,0,True
17.866666666666667,-0.45128268003463745,36.415817737579346,1.6848231687330213,0,True
17.9,-0.47522974014282227,35.96453505754471,0.9514001846122521,0,True
17.933333333333334,-0.37696111202239985,35.489305317401886,0.041101186214219584,0,True
17.966666666666665,-0.19304519891738894,35.112344205379486,-0.7054290416317844,0,True
18.0,0.5445293188095094,34.9192990064621,-1.042961367813029,0,True
18.033333333333335,0.7201184034347534,35.463828325271606,-0.9153610064968036,0,True
18.066666666666666,1.0928988456726074,36.18394672870636,-0.4692129603686161,0,True
18.1,0.3164240419864655,37.27684557437897,0.017509059227566532,0,True
18.133333333333333,-0.05577355623245239,37.59326961636543,0.26077468225080125,0,True
18.166666666666668,-0.4642437696456909,37.53749606013298,0.09476088274089088,0,True
18.2,-0.4131712913513184,37.07325229048729,-0.4581974078962096,0,True
18.233333333333334,-0.2878609299659729,36.66008099913597,-1.1980838475908708,0,True
18.266666666666666,-0.13424694538116455,36.37222006917,-1.8284834476382927,0,True
18.3,0.10469150543212889,36.237973123788834,-2.0732652775480376,0,True
18.333333333333332,0.9529796242713927,36.34266462922096,-1.7843735305713502,0,True
18.366666666666667,1.0293560028076172,37.295644253492355,-1.001405612432689,0,True
18.4,1.177304267883301,38.32500025629997,0.06037714381859663,0,True
18.433333333333334,0.7736513614654541,39.50230452418327,1.0908248078370497,0,True
18.466666666666665,-0.1922849416732788,40.27595588564873,1.802370018532519,0,True
18.5,-0.5082091093063353,40.08367094397545,2.0342477876842504,0,True
18.533333333333335,-0.4545925855636596,39.57546183466911,1.799440582900401,0,True
18.566666666666666,-0.41966104507446284,39.12086924910545,1.2593958382470962,0,True
18.6,-0.3617513179779052,38.70120820403099,0.6466056766699214,0,True
18.633333333333333,-0.14351165294647217,38.339456886053085,0.17423476272594238,0,True
18.666666666666668,-0.09697592258453368,38.19594523310661,-0.03189079843482974,0,True
18.7,-0.009607136249542236,38.09896931052208,0.03953847203030549,0,True
18.733333333333334,0.270379900932312,38.08936217427254,0.30006423336872334,0,True
18.766666666666666,0.18161499500274658,38.35974207520485,0.6071932139942502,0,True
18.8,-0.32396239042282104,38.541357070207596,0.8233277263481802,0,True
18.833333333333332,-0.37843847274780273,38.217394679784775,0.8666590237935902,0,True
18.866666666666667,-0.41290700435638433,37.83895620703697,0.7348984918623009,0,True
18.9,-0.3645419478416443,37.42604920268059,0.49405737921830484,0,True
18.933333333333334,-0.21785467863082883,37.06150725483894,0.240839456546486,0,True
18.966666666666665,-0.23491287231445315,36.843652576208115,0.05793424404685967,0,True
19.0,-0.24481236934661865,36.60873970389366,-0.018936775331608705,0,True
19.033333333333335,-0.024356007575988766,36.36392733454704,-0.011591906208206961,0,True
19.066666666666666,-0.28529787063598633,36.339571326971054,0.013446372025469422,0,True
19.1,-0.1954483985900879,36.05427345633507,-0.025130063403308932,0,True
19.133333333333333,-0.45045900344848633,35.85882505774498,-0.18750308169744284,0,True
19.166666666666668,-0.3961562514305115,35.40836605429649,-0.48375069617569716,0,True
19.2,-0.2941192388534546,35.01220980286598,-0.8625601929124547,0,True
19.233333333333334,-0.2766101360321045,34.71809056401253,-1.2227268199539452,0,True
19.266666666666666,-0.3456074595451355,34.44148042798042,-1.4457289297473483,0,True
19.3,-0.09550464153289794,34.09587296843529,-1.4413899580463307,0,True
19.333333333333332,0.18744462728500363,34.00036832690239,-1.1923013949540127,0,True
19.366666666666667,0.8412897586822511,34.18781295418739,-0.7769605592795101,0,True
19.4,0.36758178472518915,35.029102712869644,-0.35296149008982725,0,True
19.433333333333334,-0.2630300521850586,35.39668449759483,-0.09745275014500837,0,True
19.466666666666665,-0.3895171880722046,35.133654445409775,-0.1278121726056573,0,True
19.5,-0.37829828262329096,34.74413725733757,-0.4417848166380445,0,True
19.533333333333335,-0.20610922574996945,34.36583897471428,-0.9080521139082133,0,True
19.566666666666666,-0.36453461647033686,34.15972974896431,-1.3125189544961378,0,True
19.6,0.07928419113159181,33.79519513249397,-1.4416605748790303,0,True
19.633333333333333,0.4697346091270448,33.874479323625565,-1.1712670923353972,0,True
19.666666666666668,0.9704350233078002,34.34421393275261,-0.5253462841632761,0,True
19.7,1.2457542419433594,35.31464895606041,0.32333352004420285,0,True
19.733333333333334,0.42241927981376654,36.56040319800377,1.1183158042802648,0,True
19.766666666666666,-0.3287438154220581,36.982822477817535,1.6253719102243007,0,True
19.8,-0.4296490550041198,36.65407866239548,1.729325405196403,0,True
19.833333333333332,-0.3625088930130005,36.22442960739136,1.4741977769615617,0,True
19.866666666666667,-0.3026058077812195,35.86192071437836,1.0309114486779727,0,True
19.9,0.04263699054718017,35.55931490659714,0.6150511623173118,0,True
19.933333333333334,-0.1105118989944458,35.60195189714432,0.396601158645749,0,True
19.966666666666665,0.24208402633666995,35.49143999814987,0.4387738746891904,0,True
20.0,0.410797894001007,35.73352402448654,0.6848899000339319,0,True
20.033333333333335,0.07235750555992126,36.14432191848755,0.9926288576941725,0,True
20.066666666666666,-0.027781426906585693,36.21667942404747,1.1990555380500643,0,True
20.1,-0.3688665628433227,36.188897997140884,1.1895454524991456,0,True
20.133333333333333,-0.4312090873718261,35.82003143429756,0.9429146214196389,0,True
20.166666666666668,-0.4982115030288695,35.388822346925735,0.535757562375219,0,True
20.2,-0.32690215110778803,34.890610843896866,0.10645023008906658,0,True
20.233333333333334,-0.20031321048736572,34.56370869278908,-0.20466003597644225,0,True
20.266666666666666,-0.05020314455032349,34.36339548230171,-0.3138442099912981,0,True
20.3,0.18699592351913452,34.31319233775139,-0.2277490836827264,0,True
20.333333333333332,0.21840840578079224,34.50018826127052,-0.03872139959051729,0,True
20.366666666666667,-0.19298315048217773,34.718596667051315,0.11677188354571769,0,True
20.4,-0.24213498830795288,34.52561351656914,0.11941776998240747,0,True
20.433333333333334,-0.41865402460098267,34.283478528261185,-0.0787581373192551,0,True
20.466666666666665,-0.5084869861602784,33.8648245036602,-0.4314500854814134,0,True
20.5,-0.4332947731018067,33.356337517499924,-0.8165761762774639,0,True
20.533333333333335,-0.09899067878723145,32.92304274439812,-1.0885760434148077,0,True
20.566666666666666,0.2988595366477967,32.824052065610886,-1.1424576337744907,0,True
20.6,-0.04977208375930786,33.12291160225868,-0.9620996775963733,0,True
20.633333333333333,0.26019805669784546,33.073139518499374,-0.6320835216743474,0,True
20.666666666666668,0.32462489604949946,33.33333757519722,-0.3078222721226897,0,True
20.7,-0.11570101976394653,33.65796247124672,-0.15427952644744608,0,True
20.733333333333334,-0.3367084860801696,33.54226145148277,-0.2747154773791544,0,True
20.766666666666666,-0.4316380023956299,33.2055529654026,-0.6572796394956211,0,True
20.8,-0.44403135776519775,32.77391496300697,-1.164721469784508,0,True
20.833333333333332,-0.33205449581146235,32.329883605241776,-1.5775434930252965,0,True
20.866666666666667,-0.15671294927597046,31.997829109430313,-1.678802112935642,0,True
20.9,1.0941169261932373,31.841116160154343,-1.3487406936268866,0,True
20.933333333333334,0.9284076690673827,32.93523308634758,-0.627431207099383,0,True
20.966666666666665,0.8690359592437744,33.86364075541496,0.28817031686449174,0,True
21.0,0.33636280894279486,34.73267671465874,1.1171058768594315,0,True
21.033333333333335,-0.18568646907806394,35.06903952360153,1.6055681595955518,0,True
21.066666666666666,-0.45202606916427607,34.88335305452347,1.625706133946791,0,True
21.1,-0.4377024173736572,34.43132698535919,1.2204302239156446,0,True
21.133333333333333,-0.4612238407135009,33.993624567985535,0.580244871369312,0,True
21.166666666666668,-0.37182748317718506,33.532400727272034,-0.03308886819509508,0,True
21.2,0.042500138282775886,33.16057324409485,-0.3842166246162544,0,True
21.233333333333334,0.18538939952850342,33.203073382377625,-0.348136055325472,0,True
21.266666666666666,0.696049690246582,33.38846278190613,0.04805441185928897,0,True
21.3,0.6348018646240234,34.08451247215271,0.6404764018229326,0,True
21.333333333333332,0.3174264430999756,34.71931433677673,1.1962741300070192,0,True
21.366666666666667,-0.324730932712555,35.03674077987671,1.5080794039477716,0,True
21.4,-0.4517629742622376,34.712009847164154,1.475645662859622,0,True
21.433333333333334,-0.4221554398536682,34.26024687290192,1.1393933849929205,0,True
21.466666666666665,-0.4260194301605225,33.83809143304825,0.6533574543516446,0,True
21.5,-0.348537266254425,33.412072002887726,0.21288209375204323,0,True
21.533333333333335,-0.2528262734413147,33.0635347366333,-0.03027305827391456,0,True
21.566666666666666,0.5370399355888367,32.810708463191986,-0.030636272992618813,0,True
21.6,0.2745548188686371,33.34774839878082,0.13591325676596888,0,True
21.633333333333333,-0.21131563186645508,33.62230321764946,0.3116681075675808,0,True
21.666666666666668,-0.4007149338722229,33.410987585783005,0.33339131333062916,0,True
21.7,-0.4332835078239441,33.01027265191078,0.10904655269669296,0,True
21.733333333333334,-0.4698107242584228,32.57698914408684,-0.33971186615904253,0,True
21.766666666666666,-0.43284338712692266,32.107178419828415,-0.8845151195809888,0,True
21.8,-0.39700722694396967,31.674335032701492,-1.3403325605258547,0,True
21.833333333333332,-0.07675111293792725,31.277327805757523,-1.5383751292519103,0,True
21.866666666666667,0.5857820510864259,31.200576692819595,-1.3951646369619202,0,True
21.9,0.5956103801727296,31.78635874390602,-0.9509155699408941,0,True
21.933333333333334,0.1985974907875061,32.38196912407875,-0.3598046917868311,0,True
21.966666666666665,0.30632659792900085,32.58056661486626,0.16557446682899687,0,True
22.0,-0.2505347728729248,32.88689321279526,0.43304012296723415,0,True
22.033333333333335,-0.25033843517303467,32.63635843992233,0.34227307152218345,0,True
22.066666666666666,-0.31934887170791626,32.3860200047493,-0.0759781600081101,0,True
22.1,-0.44747507572174067,32.06667113304138,-0.6652472835615924,0,True
22.133333333333333,-0.36790937185287476,31.61919605731964,-1.1924240997080429,0,True
22.166666666666668,-0.29533398151397705,31.251286685466766,-1.4279662367962267,0,True
22.2,0.86489075422287,30.95595270395279,-1.2334054956960192,0,True
22.233333333333334,1.0498729944229124,31.82084345817566,-0.6230885351172449,0,True
22.266666666666666,0.8123561143875122,32.87071645259857,0.23083457361122497,0,True
22.3,0.5022490620613097,33.683072566986084,1.0592168603628855,0,True
22.333333333333332,-0.10118985176086426,34.185321629047394,1.598426972766272,0,True
22.366666666666667,-0.34792053699493414,34.08413177728653,1.6891893400693592,0,True
22.4,-0.3827711343765258,33.736211240291595,1.3308489119948115,0,True
22.433333333333334,-0.47340083122253424,33.35344010591507,0.6738322155361594,0,True
22.466666666666665,-0.29839468002319336,32.880039274692535,-0.04059153833832231,0,True
22.5,-0.3050881624221802,32.58164459466934,-0.5676677059189484,0,True
22.533333333333335,0.26469913125038147,32.27655643224716,-0.7436192505658792,0,True
22.566666666666666,0.6932018995285034,32.54125556349754,-0.5403096078892604,0,True
22.6,0.3023802042007447,33.23445746302605,-0.07141895324748553,0,True
22.633333333333333,0.5928024649620057,33.53683766722679,0.45358775703185744,0,True
22.666666666666668,0.22535547614097592,34.1296401321888,0.8118895510835509,0,True
22.7,-0.3922974467277527,34.35499560832977,0.8551640173096644,0,True
22.733333333333334,-0.4976315498352051,33.96269816160202,0.568292882835408,0,True
22.766666666666666,-0.5133562088012695,33.465066611766815,0.07403375898640738,0,True
22.8,-0.18134284019470215,32.951710402965546,-0.41952410972990356,0,True
22.833333333333332,0.19350755214691162,32.77036756277084,-0.7063299828508854,0,True
22.866666666666667,0.1588219702243805,32.963875114917755,-0.6668795035956979,0,True
22.9,0.5993223190307617,33.122697085142136,-0.31529811855431783,0,True
22.933333333333334,0.5630873441696166,33.7220194041729,0.20812666000791977,0,True
22.966666666666665,0.15823015570640567,34.285106748342514,0.6942335409543847,0,True
23.0,-0.2385094165802002,34.44333690404892,0.9485400882609103,0,True
23.033333333333335,-0.37362492084503174,34.20482748746872,0.8671785549396863,0,True
23.066666666666666,-0.4298032522201538,33.83120256662369,0.4751088583985484,0,True
23.1,-0.48202621936798085,33.401399314403534,-0.08631306143958704,0,True
23.133333333333333,-0.400943636894226,32.91937309503555,-0.6147945216297466,0,True
23.166666666666668,-0.0018587112426757808,32.51842945814133,-0.923793792627565,0,True
23.2,0.18887695670127866,32.51657074689865,-0.9129374839054978,0,True
23.233333333333334,0.43154066801071167,32.70544770359993,-0.6065927231813902,0,True
23.266666666666666,0.3719458878040314,33.13698837161064,-0.1451112517406133,0,True
23.3,0.23622626066207883,33.50893425941467,0.26975771463772785,0,True
23.333333333333332,-0.21714138984680176,33.74516052007675,0.45567806322905224,0,True
23.366666666666667,-0.3757088780403137,33.52801913022995,0.32544576417154125,0,True
23.4,-0.42676508426666254,33.152310252189636,-0.0733178188924681,0,True
23.433333333333334,-0.44864189624786377,32.725545167922974,-0.5720474927902992,0,True
23.466666666666665,-0.2417756915092468,32.27690327167511,-0.9453464296357195,0,True
23.5,0.08081972599029541,32.03512758016586,-1.002195316575195,0,True
23.533333333333335,0.5972009301185608,32.11594730615616,-0.6688541965221402,0,True
23.566666666666666,1.2441174983978271,32.71314823627472,-0.02730460943490149,0,True
23.6,0.46338173747062683,33.957265734672546,0.7124868403805508,0,True
23.633333333333333,0.08894583582878111,34.42064747214317,1.2990266173074083,0,True
23.666666666666668,-0.21801340579986572,34.509593307971954,1.5455968958061703,0,True
23.7,-0.4438341856002808,34.29157990217209,1.4053107423404492,0,True
23.733333333333334,-0.4768636226654052,33.84774571657181,0.9808744263552831,0,True
23.766666666666666,-0.3861360549926758,33.3708820939064,0.4685455301195711,0,True
23.8,0.2167312204837799,32.98474603891373,0.06532712665258118,0,True
23.833333333333332,0.17433583736419675,33.20147725939751,-0.11781219466350222,0,True
23.866666666666667,0.2652963995933533,33.3758130967617,-0.09933809917626599,0,True
23.9,-0.11525964736938477,33.64110949635506,-0.01135791217891883,0,True
23.933333333333334,0.03075540065765381,33.52584984898567,-0.03518632800050064,0,True
23.966666666666665,-0.2635158300399781,33.556605249643326,-0.3164039145594194,0,True
24.0,-0.30205380916595465,33.29308941960335,-0.8914007071349462,0,True
24.033333333333335,-0.43934494256973267,32.99103561043739,-1.6520451401031222,0,True
24.066666666666666,-0.43420982360839844,32.55169066786766,-2.3649932532947417,0,True
24.1,-0.17683660984039307,32.11748084425926,-2.746689758430312,0,True
24.133333333333333,0.9501920342445372,31.94064423441887,-2.573661089873569,0,True
24.166666666666668,1.4394533634185789,32.890836268663406,-1.7863009436207176,0,True
24.2,1.3078548908233645,34.330289632081985,-0.5370847574214922,0,True
24.233333333333334,1.5237283706665041,35.63814452290535,0.8469563434557575,0,True
24.266666666666666,0.6361931562423706,37.161872893571854,1.978563993256299,0,True
24.3,-0.10244905948638915,37.798066049814224,2.5553402421813907,0,True
24.333333333333332,-0.4857182502746582,37.695616990327835,2.473863475669528,0,True
24.366666666666667,-0.4935786724090576,37.20989874005318,1.8637860342920811,0,True
24.4,-0.41504275798797613,36.71632006764412,1.0284664400099812,0,True
24.433333333333334,-0.332893967628479,36.30127730965614,0.31932724141533264,0,True
24.466666666666665,0.7349247932434083,35.968383342027664,-0.0030506984593681175,0,True
24.5,1.1274653673171997,36.70330813527107,0.13493301783440384,0,True
24.533333333333335,0.5565035343170165,37.83077350258827,0.6041505645271741,0,True
24.566666666666666,0.26104843616485596,38.38727703690529,1.1397952154356568,0,True
24.6,0.05160176753997803,38.648325473070145,1.4564298331681782,0,True
24.633333333333333,-0.02509105205535889,38.69992724061012,1.3597778144322172,0,True
24.666666666666668,-0.3567038774490356,38.674836188554764,0.8155549968066959,0,True
24.7,-0.2937988042831421,38.31813231110573,-0.04075314512596465,0,True
24.733333333333334,-0.34220951795578,38.024333506822586,-0.9504956622829115,0,True
24.766666666666666,-0.02336317300796509,37.682123988866806,-1.6203293099078284,0,True
24.8,0.16178515553474423,37.65876081585884,-1.8283116751371682,0,True
24.833333333333332,0.8871461153030396,37.820545971393585,-1.514680821706274,0,True
24.866666666666667,1.3242021799087524,38.707692086696625,-0.8211080460703462,0,True
24.9,1.4788435697555542,40.03189426660538,-0.05185916309802956,0,True
24.933333333333334,0.028547823429107666,41.51073783636093,0.4415821983267804,0,True
24.966666666666665,-0.34748744964599615,41.53928565979004,0.4110972472001418,0,True
25.0,-0.3918057680130005,41.19179821014404,-0.17076171907670676,0,True
25.033333333333335,-0.4942183494567871,40.79999244213104,-1.0854173658246786,0,True
25.066666666666666,-0.29348742961883545,40.305774092674255,-1.9500655385651169,0,True
25.1,0.5085096955299377,40.01228666305542,-2.373062959599284,0,True
25.133333333333333,1.4425826072692869,40.52079635858536,-2.1186299395522714,0,True
25.166666666666668,1.5731266736984253,41.963378965854645,-1.2114326248867924,0,True
25.2,1.6465286016464236,43.53650563955307,0.06582459240393132,0,True
25.233333333333334,1.4186546802520752,45.18303424119949,1.2836131873345697,0,True
25.266666666666666,-0.03233671188354492,46.60168892145157,2.039280541479375,0,True
25.3,-0.18529498577117917,46.569352209568024,2.118737370345131,0,True
25.333333333333332,-0.3461891412734985,46.384057223796844,1.576840192589097,0,True
25.366666666666667,-0.32278871536254883,46.037868082523346,0.704611064433935,0,True
25.4,-0.08334195613861084,45.7150793671608,-0.09775811732710848,0,True
25.433333333333334,1.008847951889038,45.631737411022186,-0.485468954814699,0,True
25.466666666666665,1.2741779088974001,46.640585362911224,-0.30390062594966066,0,True
25.5,0.9343806505203247,47.914763271808624,0.3578599953106812,0,True
25.533333333333335,0.7252448797225951,48.84914392232895,1.2104262665980825,0,True
25.566666666666666,1.2554705142974854,49.574388802051544,1.880717467183939,0,True
25.6,-0.19215172529220584,50.82985931634903,2.054973417956255,0,True
25.633333333333333,-0.41011434793472296,50.637707591056824,1.598536724672698,0,True
25.666666666666668,-0.47234439849853516,50.2275932431221,0.6113682825820904,0,True
25.7,-0.3835999369621277,49.755248844623566,-0.6025499833029299,0,True
25.733333333333334,-0.2083888053894043,49.37164890766144,-1.6433627489239417,0,True
25.766666666666666,0.2363828122615814,49.163260102272034,-2.1630763198754934,0,True
25.8,1.494550347328186,49.399642914533615,-1.9993000123517644,0,True
25.833333333333332,1.6323376893997192,50.8941932618618,-1.242418116831367,0,True
25.866666666666667,1.3580095767974854,52.52653095126152,-0.20356338127464385,0,True
25.9,1.0065701007843015,53.884540528059006,0.7097355556305895,0,True
25.933333333333334,0.04473268985748291,54.89111062884331,1.159684301572637,0,True
25.966666666666665,-0.16257017850875857,54.93584331870079,1.0137357502026616,0,True
26.0,-0.33724820613861084,54.77327314019203,0.390593902221026,0,True
26.033333333333335,-0.27368032932281494,54.43602493405342,-0.40146184299278687,0,True
26.066666666666666,0.024092018604278564,54.162344604730606,-1.0049396110176256,0,True
26.1,1.4546399116516113,54.186436623334885,-1.1700786891860706,0,True
26.133333333333333,1.1624913215637207,55.641076534986496,-0.8591992873208968,0,True
26.166666666666668,0.9805230498313903,56.80356785655022,-0.2523933800662986,0,True
26.2,0.5728612542152404,57.78409090638161,0.3446102651521492,0,True
26.233333333333334,0.5217525362968445,58.35695216059685,0.6429532415989151,0,True
26.266666666666666,-0.3736755847930908,58.87870469689369,0.49709346498543533,0,True
26.3,-0.313970685005188,58.5050291121006,-0.037439059113021575,0,True
26.333333333333332,-0.2459186315536499,58.19105842709541,-0.7349444993708885,0,True
26.366666666666667,0.2618621587753296,57.94513979554176,-1.301528636105177,0,True
26.4,1.0814700126647951,58.20700195431709,-1.500517432050502,0,True
26.433333333333334,1.3070958852767944,59.28847196698189,-1.2450150370942203,0,True
26.466666666666665,0.4374594092369079,60.59556785225868,-0.6205082881627206,0,True
26.5,0.4628947377204895,61.03302726149559,0.16249176994630177,0,True
26.533333333333335,1.2024648189544676,61.49592199921608,0.8550121355355921,0,True
26.566666666666666,0.8920779228210449,62.69838681817055,1.2592006229070898,0,True
26.6,-0.32854992151260376,63.59046474099159,1.2961050266765244,0,True
26.633333333333333,-0.35577392578124994,63.26191481947899,1.0327961676209727,0,True
26.666666666666668,-0.2565787434577942,62.90614089369774,0.6523229028995641,0,True
26.7,-0.03506654500961304,62.649562150239944,0.3688158597791043,0,True
26.733333333333334,1.0364670753479002,62.61449560523033,0.3229975832595068,0,True
26.766666666666666,0.901987612247467,63.65096268057823,0.5124057750790981,0,True
26.8,0.01598989963531494,64.5529502928257,0.795881442934768,0,True
26.833333333333332,0.22959399223327634,64.56894019246101,0.9702227655217434,0,True
26.866666666666667,-0.1768569350242615,64.79853418469429,0.8766922030676995,0,True
26.9,-0.5021995306015014,64.62167724967003,0.4831491069956524,0,True
26.933333333333334,-0.3614575862884521,64.11947771906853,-0.09492858755412323,0,True
26.966666666666665,-0.2764894962310791,63.758020132780075,-0.641785251855493,0,True
27.0,-0.15637606382369995,63.481530636548996,-0.9360677830505052,0,True
27.033333333333335,0.8694958686828614,63.325154572725296,-0.8518597171936537,0,True
27.066666666666666,1.1454081535339353,64.19465044140816,-0.42022970162637163,0,True
27.1,0.28236204385757446,65.3400585949421,0.1794522316759729,0,True
27.133333333333333,0.09394404292106628,65.62242063879967,0.6959180301455435,0,True
27.166666666666668,-0.12291014194488525,65.71636468172073,0.9125576800352444,0,True
27.2,-0.44747781753540045,65.59345453977585,0.7340604390191311,0,True
27.233333333333334,-0.3492174148559571,65.14597672224045,0.21926968689104992,0,True
27.266666666666666,-0.35346418619155884,64.79675930738449,-0.4460550545267941,0,True
27.3,-0.32045137882232666,64.44329512119293,-1.0211801242726848,0,True
27.333333333333332,-0.08509945869445801,64.1228437423706,-1.3003062467182338,0,True
27.366666666666667,0.6689185500144958,64.03774428367615,-1.1903107055860078,0,True
27.4,0.9922332763671876,64.70666283369064,-0.7485427777282353,0,True
27.433333333333334,0.15952563285827634,65.69889611005783,-0.16357581753418818,0,True
27.466666666666665,0.09841525554656982,65.85842174291611,0.3162063767845642,0,True
27.5,-0.1364685297012329,65.95683699846268,0.47737215097707625,0,True
27.533333333333335,-0.20209276676177979,65.82036846876144,0.2223526661502797,0,True
27.566666666666666,-0.38784146308898926,65.61827570199966,-0.3900258891453214,0,True
27.6,-0.3978030681610107,65.23043423891068,-1.1547672695128104,0,True
27.633333333333333,-0.2631646394729615,64.83263117074966,-1.780117907897602,0,True
27.666666666666668,-0.1139218807220459,64.5694665312767,-1.9839056257185081,0,True
27.7,0.9764935970306396,64.45554465055466,-1.600742170629532,0,True
27.733333333333334,1.475769281387329,65.4320382475853,-0.66080999867758,0,True
27.766666666666666,1.5499688386917114,66.90780752897263,0.599844988328688,0,True
27.8,1.102781891822815,68.45777636766434,1.8147984118299958,0,True
27.833333333333332,-0.18587708473205566,69.56055825948715,2.624165742732853,0,True
27.866666666666667,-0.5606727600097656,69.3746811747551,2.8127651339604505,0,True
27.9,-0.5812690258026123,68.81400841474533,2.3856307682123306,0,True
27.933333333333334,-0.31775307655334467,68.23273938894272,1.5503150901554128,0,True
27.966666666666665,-0.30777847766876226,67.91498631238937,0.6229531453097213,0,True
28.0,-0.11907553672790529,67.60720783472061,-0.09465405285977418,0,True
28.033333333333335,0.2613815069198608,67.4881322979927,-0.41877692189812077,0,True
28.066666666666666,0.5422015786170958,67.74951380491257,-0.3370217757469277,0,True
28.1,0.47962731122970576,68.29171538352966,0.0004545959561557866,0,True
28.133333333333333,0.45313259959220886,68.77134269475937,0.345365279440066,0,True
28.166666666666668,-0.18411946296691895,69.22447529435158,0.4487499163200541,0,True
28.2,-0.28705757856369024,69.04035583138466,0.15802533369870891,0,True
28.233333333333334,-0.4493981003761291,68.75329825282097,-0.5200868992985511,0,True
28.266666666666666,-0.333723783493042,68.30390015244484,-1.4127742914727788,0,True
28.3,-0.3273745775222778,67.9701763689518,-2.233724699532,0,True
28.333333333333332,-0.14791995286941526,67.64280179142952,-2.6800110358071985,0,True
28.366666666666667,0.8964964151382446,67.4948818385601,-2.5438864513852346,0,True
28.4,1.4001250267028806,68.39137825369835,-1.8003603054440755,0,True
28.433333333333334,1.440861225128174,69.79150328040123,-0.6319332910993505,0,True
28.466666666666665,1.1316908597946167,71.2323645055294,0.6282505416146956,0,True
28.5,0.6542568802833557,72.36405536532402,1.617392733902369,0,True
28.533333333333335,-0.3371187448501587,73.01831224560738,2.0783145933279594,0,True
28.566666666666666,-0.5247418880462646,72.68119350075722,1.9505475214958243,0,True
28.6,-0.34458237886428833,72.15645161271095,1.3789647255160657,0,True
28.633333333333333,-0.2706493735313416,71.81186923384666,0.6402860290276323,0,True
28.666666666666668,-0.2566858530044555,71.54121986031532,0.02405699924845109,0,True
28.7,0.356581449508667,71.28453400731087,-0.2801535043731618,0,True
28.733333333333334,0.6343733668327333,71.64111545681953,-0.24604342924205644,0,True
28.766666666666666,0.25812637805938715,72.27548882365227,-0.0033540418145577683,0,True
28.8,0.09038856625556946,72.53361520171165,0.23298568879329212,0,True
28.833333333333332,-0.08314216136932373,72.62400376796722,0.265019625196286,0,True
28.866666666666667,-0.3036143779754639,72.5408616065979,0.0017001589133900932,0,True
28.9,-0.4706124067306519,72.23724722862244,-0.4987691866187491,0,True
28.933333333333334,-0.3388344049453735,71.76663482189178,-1.0492231070340314,0,True
28.966666666666665,-0.19930595159530642,71.42780041694641,-1.4084297129551069,0,True
29.0,0.3546686768531799,71.2284944653511,-1.3822094290614766,0,True
29.033333333333335,0.9755037426948548,71.58316314220428,-0.9099493112505753,0,True
29.066666666666666,1.2358877658843994,72.55866688489914,-0.09768196270997201,0,True
29.1,0.6116672754287719,73.79455465078354,0.820541085909654,0,True
29.133333333333333,-0.08756709098815918,74.40622192621231,1.577010422038617,0,True
29.166666666666668,-0.2533918619155884,74.31865483522415,1.9747645515461991,0,True
29.2,-0.3455893397331237,74.06526297330856,1.9526055873851882,0,True
29.233333333333334,-0.5155451297760009,73.71967363357544,1.5867115790448687,0,True
29.266666666666666,-0.37177330255508423,73.20412850379944,1.039109757249343,0,True
29.3,-0.36080181598663325,72.83235520124435,0.48395726340916817,0,True
29.333333333333332,-0.25932037830352783,72.47155338525772,0.04388970799510863,0,True
29.366666666666667,-0.313632607460022,72.2122330069542,-0.24252137436538534,0,True
29.4,-0.16516709327697754,71.89860039949417,-0.41639616814661506,0,True
29.433333333333334,-0.20715975761413577,71.7334333062172,-0.5643519227324907,0,True
29.466666666666665,-0.3357415199279785,71.52627354860306,-0.769303853077151,0,True
29.5,-0.23862016201019287,71.19053202867508,-1.0642846070250978,0,True
29.533333333333335,-0.4022431373596191,70.95191186666489,-1.4067240252007165,0,True
29.566666666666666,-0.39882904291152954,70.54966872930527,-1.6853764886731786,0,True
29.6,-0.3136540651321411,70.15083968639374,-1.7616280436071934,0,True
29.633333333333333,0.5435938835144042,69.8371856212616,-1.5323922798670706,0,True
29.666666666666668,0.377379298210144,70.380779504776,-0.9877337899175122,0,True
29.7,1.2445318698883057,70.75815880298615,-0.23239784304042946,0,True
29.733333333333334,0.12626558542251584,72.00269067287445,0.5453416477023292,0,True
29.766666666666666,-0.19164514541625977,72.12895625829697,1.146053592478532,0,True
29.8,-0.32701027393341064,71.9373111128807,1.436787841633007,0,True
29.833333333333332,-0.3844790458679199,71.6103008389473,1.3954752367947323,0,True
29.866666666666667,-0.4045173525810242,71.22582179307938,1.10517105748627,0,True
29.9,-0.33115166425704956,70.82130444049835,0.7087497995038695,0,True
29.933333333333334,-0.41314423084259033,70.4901527762413,0.3491711343192711,0,True
29.966666666666665,-0.04482138156890869,70.07700854539871,0.11935828531370345,0,True
30.0,-0.18518555164337158,70.0321871638298,0.03684817846845222,0,True
30.033333333333335,-0.12695300579071045,69.84700161218643,0.047955849763400636,0,True
30.066666666666666,-0.3423514366149902,69.72004860639572,0.05663089532030751,0,True
30.1,-0.16810208559036258,69.37769716978073,-0.03365419225821249,0,True
30.133333333333333,-0.4488847255706787,69.20959508419037,-0.2787552065807909,0,True
30.166666666666668,-0.39425766468048096,68.76071035861969,-0.66546414963102,0,True
30.2,-0.39042001962661754,68.36645269393921,-1.1049546605650444,0,True
30.233333333333334,-0.3212739825248719,67.97603267431259,-1.453108100544486,0,True
30.266666666666666,-0.18598568439483643,67.65475869178772,-1.555802939305358,0,True
30.3,0.48603764176368713,67.46877300739288,-1.307520463211538,0,True
30.333333333333332,0.28163945674896235,67.95481064915657,-0.702341647016049,0,True
30.366666666666667,1.1554791927337646,68.23645010590553,0.14662953748184215,0,True
30.4,0.738958239555359,69.3919292986393,1.0348901171355405,0,True
30.433333333333334,0.054181605577468865,70.13088753819466,1.7368569913840892,0,True
30.466666666666665,-0.44168090820312506,70.18506914377213,2.0910111869766133,0,True
30.5,-0.3645892143249511,69.743388235569,2.059450388045304,0,True
30.533333333333335,-0.29906475543975825,69.37879902124405,1.7327348815811632,0,True
30.566666666666666,-0.35325789451599116,69.07973426580429,1.2804584169209687,0,True
30.6,-0.33514308929443354,68.7264763712883,0.8738237070009606,0,True
30.633333333333333,-0.06079745292663575,68.39133328199387,0.6143633915215834,0,True
30.666666666666668,0.2727798819541931,68.33053582906723,0.4963794124395465,0,True
30.7,-0.04950761795043945,68.60331571102142,0.41751529291954254,0,True
30.733333333333334,-0.21264541149139402,68.55380809307098,0.23412900527659408,0,True
30.766666666666666,-0.32626843452453613,68.34116268157959,-0.16128163010677854,0,True
30.8,-0.4837853908538818,68.01489424705505,-0.7748351157884923,0,True
30.833333333333332,-0.43455868959426874,67.53110885620117,-1.4883745058953992,0,True
30.866666666666667,-0.2755799889564514,67.0965501666069,-2.0919387415283595,0,True
30.9,0.48886403441429144,66.82097017765045,-2.362136298355861,0,True
30.933333333333334,0.6096307635307312,67.30983421206474,-2.1568044030907667,0,True
30.966666666666665,0.9809924364089967,67.91946497559547,-1.486624311566468,0,True
31.0,1.2000563144683838,68.90045741200447,-0.5308371688547546,0,True
31.033333333333335,1.2544126510620115,70.10051372647285,0.4154460199575913,0,True
31.066666666666666,0.4917952418327331,71.35492637753487,1.0482525243032725,0,True
31.1,-0.23048943281173703,71.8467216193676,1.176589223070971,0,True
31.133333333333333,-0.3695524930953979,71.61623218655586,0.8057591454303142,0,True
31.166666666666668,-0.3190675377845764,71.24667969346046,0.13925549732296996,0,True
31.2,-0.23253244161605838,70.92761215567589,-0.5079609062692496,0,True
31.233333333333334,0.17862507700920102,70.69507971405983,-0.849399321390481,0,True
31.266666666666666,1.4387363195419312,70.87370479106903,-0.7577931440343408,0,True
31.3,1.3186476230621336,72.31244111061096,-0.32433295744545226,0,True
31.333333333333332,0.7416631579399108,73.6310887336731,0.1864631486502643,0,True
31.366666666666667,-0.05357837677001954,74.372751891613,0.4676939609518418,0,True
31.4,-0.40382951498031616,74.31917351484299,0.3214153315883731,0,True
31.433333333333334,-0.3710815906524659,73.91534399986267,-0.2451411004058623,0,True
31.466666666666665,-0.13568592071533203,73.5442624092102,-1.020853873156172,0,True
31.5,0.1321136951446533,73.40857648849487,-1.681006453174223,0,True
31.533333333333335,0.984346330165863,73.54069018363953,-1.9205714403499112,0,True
31.566666666666666,0.6264184713363647,74.52503651380539,-1.574144330015243,0,True
31.6,1.4429562091827395,75.15145498514175,-0.6792696138818488,0,True
31.633333333333333,1.3177340030670166,76.5944111943245,0.5353657047445941,0,True
31.666666666666668,1.2307968139648438,77.91214519739151,1.7302779904972743,0,True
31.7,0.6982260346412659,79.14294201135635,2.576533005530289,0,True
31.733333333333334,-0.46559655666351324,79.84116804599762,2.8746277214646,0,True
31.766666666666666,-0.48676645755767817,79.3755714893341,2.622959359965954,0,True
31.8,-0.4866983890533448,78.88880503177643,2.004508091165526,0,True
31.833333333333332,-0.40659892559051514,78.40210664272308,1.2966089532133382,0,True
31.866666666666667,-0.14853155612945557,77.99550771713257,0.7458490836708631,0,True
31.9,0.737312912940979,77.84697616100311,0.46620232810227275,0,True
31.933333333333334,0.2526403069496155,78.58428907394409,0.40642548852218036,0,True
31.966666666666665,-0.1345154047012329,78.83692938089371,0.3993420675994849,0,True
32.0,-0.32864439487457275,78.70241397619247,0.26506056811294254,0,True
32.03333333333333,-0.39843887090682983,78.3737695813179,-0.08618731155197437,0,True
32.06666666666667,-0.46860408782958984,77.97533071041107,-0.6019286228707713,0,True
32.1,-0.3809776306152343,77.50672662258148,-1.1079889570209922,0,True
32.13333333333333,-0.24135780334472656,77.12574899196625,-1.3901577221810575,0,True
32.166666666666664,0.5254098773002623,76.88439118862152,-1.300242990990918,0,True
32.2,0.8249651193618774,77.40980106592178,-0.8381314520936478,0,True
32.233333333333334,1.2630844116210938,78.23476618528366,-0.1681970425385859,0,True
32.266666666666666,-0.2237069010734558,79.49785059690475,0.44350617787121815,0,True
32.3,-0.38096106052398676,79.2741436958313,0.7441935604123918,0,True
32.333333333333336,-0.31415432691574097,78.89318263530731,0.6052473350666875,0,True
32.36666666666667,-0.3945108652114868,78.57902830839157,0.07716352716462899,0,True
32.4,-0.4909273386001587,78.18451744318008,-0.6309802959868711,0,True
32.43333333333333,-0.2807217836380005,77.69359010457993,-1.2337748694139214,0,True
32.46666666666667,-0.10903942584991455,77.41286832094193,-1.4816106995210832,0,True
32.5,0.8014007806777953,77.30382889509201,-1.2636678991813037,0,True
32.53333333333333,0.9720557928085326,78.1052296757698,-0.6620620460769734,0,True
32.56666666666667,1.050602674484253,79.07728546857834,0.07094313924098397,0,True
32.6,-0.032673001289367676,80.12788814306259,0.6118232387035676,0,True
32.63333333333333,-0.30745869874954224,80.09521514177322,0.7029705969697545,0,True
32.666666666666664,-0.43163859844207764,79.78775644302368,0.26786640435666875,0,True
32.7,-0.5077095031738281,79.3561178445816,-0.5472656998388659,0,True
32.733333333333334,-0.41823804378509516,78.84840834140778,-1.4230872697248897,0,True
32.766666666666666,-0.07385951280593873,78.43017029762268,-1.9885569731182455,0,True
32.8,0.7461397647857666,78.35631078481674,-1.9685755827740639,0,True
32.833333333333336,1.5772416591644285,79.10245054960251,-1.3007677922494862,0,True
32.86666666666667,1.549324154853821,80.67969220876694,-0.17070644035108123,0,True
32.9,1.6169638633728027,82.22901636362076,1.0558949670260038,0,True
32.93333333333333,-0.08092665672302246,83.84598022699356,1.979610248912919,0,True
32.96666666666667,-0.16360807418823242,83.76505357027054,2.3277525316209666,0,True
33.0,-0.34561580419540405,83.6014454960823,2.0556647910378834,0,True
33.03333333333333,-0.30103611946105957,83.2558296918869,1.3470114403030509,0,True
33.06666666666667,-0.19920861721038816,82.95479357242584,0.5222019894405484,0,True
33.1,0.18434280157089233,82.75558495521545,-0.09785508808548546,0,True
33.13333333333333,0.6762097477912903,82.93992775678635,-0.31562576231584444,0,True
33.166666666666664,0.4341706335544586,83.61613750457764,-0.12384049159744559,0,True
33.2,0.7370944023132324,84.0503081381321,0.30478363135251096,0,True
33.233333333333334,0.9794611334800721,84.78740254044533,0.6972925826482064,0,True
33.266666666666666,-0.26457279920578003,85.7668636739254,0.7988249588963967,0,True
33.3,-0.44797313213348383,85.50229087471962,0.48439672064382744,0,True
33.333333333333336,-0.5110647678375244,85.05431774258614,-0.18237513523844243,0,True
33.36666666666667,-0.275336503982544,84.54325297474861,-0.9712851810970586,0,True
33.4,-0.05685341358184815,84.26791647076607,-1.5799401521389416,0,True
33.43333333333333,0.7127410173416138,84.21106305718422,-1.75923402542493,0,True
33.46666666666667,0.8874348998069764,84.92380407452583,-1.416530667773265,0,True
33.5,1.1102057695388794,85.81123897433281,-0.6543292368722957,0,True
33.53333333333333,0.7308388352394103,86.92144474387169,0.27035880357719966,0,True
33.56666666666667,1.1138319969177246,87.6522835791111,1.04825844359519,0,True
33.6,-0.4194806814193725,88.76611557602882,1.4397603496455234,0,True
33.63333333333333,-0.4298582077026368,88.34663489460945,1.36649262478132,0,True
33.666666666666664,-0.35520052909851074,87.91677668690681,0.9333599652001737,0,True
33.7,-0.3174120187759399,87.5615761578083,0.3715762402674025,0,True
33.733333333333334,-0.13394415378570557,87.24416413903236,-0.06949965631399936,0,True
33.766666666666666,0.7899501919746399,87.11021998524666,-0.23059910634270994,0,True
33.8,0.5151638984680176,87.9001701772213,-0.10245660508283158,0,True
33.833333333333336,0.19106197357177732,88.41533407568932,0.1862508028055073,0,True
33.86666666666667,-0.008972406387329103,88.6063960492611,0.4414718293287036,0,True
33.9,-0.002610504627227783,88.59742364287376,0.4977405626084226,0,True
33.93333333333333,-0.3223600387573242,88.59481313824654,0.29007572369771645,0,True
33.96666666666667,-0.31865608692169195,88.27245309948921,-0.12290553541429383,0,True
34.0,-0.37495726346969604,87.95379701256752,-0.5887349736300943,0,True
34.03333333333333,-0.1890336275100708,87.57883974909782,-0.9288800187808582,0,True
34.06666666666667,0.6137096285820007,87.38980612158775,-1.0165047084315302,0,True
34.1,0.3227949738502502,88.00351575016975,-0.8312349834470524,0,True
34.13333333333333,0.5954914689064026,88.32631072402,-0.4663811105918804,0,True
34.166666666666664,-0.023941218852996826,88.9218021929264,-0.085696893526572,0,True
34.2,0.16854143142700198,88.89786097407341,0.14939398839786838,0,True
34.233333333333334,0.04200989007949829,89.06640240550041,0.14937876487826035,0,True
34.266666666666666,-0.3264445066452026,89.10841229557991,-0.06527601623328871,0,True
34.3,-0.3428292274475097,88.78196778893471,-0.37223423237684705,0,True
34.333333333333336,-0.22383630275726316,88.4391385614872,-0.6002312005923083,0,True
34.36666666666667,0.19634848833084106,88.21530225872993,-0.6083214006145384,0,True
34.4,0.6599379181861876,88.41165074706078,-0.3576671621452871,0,True
34.43333333333333,0.893458127975464,89.07158866524696,0.061061700449661444,0,True
34.46666666666667,0.11520922183990479,89.96504679322243,0.46428093284699984,0,True
34.5,-0.19126611948013303,90.08025601506233,0.6625417553627789,0,True
34.53333333333333,-0.3599298000335693,89.8889898955822,0.554882089953898,0,True
34.56666666666667,-0.497127890586853,89.52906009554863,0.18221503345375958,0,True
34.6,-0.27675807476043707,89.03193220496178,-0.28599710702204656,0,True
34.63333333333333,-0.1093544363975525,88.75517413020134,-0.6242143913806909,0,True
34.666666666666664,0.23676297068595886,88.64581969380379,-0.6493135327698136,0,True
34.7,0.8505237102508545,88.88258266448975,-0.30244213471659,0,True
34.733333333333334,0.668634831905365,89.7331063747406,0.32121693728759043,0,True
34.766666666666666,0.69843590259552,90.40174120664597,1.0086706075606804,0,True
34.8,-0.09620320796966553,91.10017710924149,1.5160921568881325,0,True
34.833333333333336,-0.42689687013626093,91.00397390127182,1.6674890512048324,0,True
34.86666666666667,-0.49565136432647705,90.57707703113556,1.421042836965003,0,True
34.9,-0.3917481303215027,90.08142566680908,0.8766897636234497,0,True
34.93333333333333,-0.353057861328125,89.68967753648758,0.22773954641490335,0,True
34.96666666666667,-0.29015266895294195,89.33661967515945,-0.3178025699011992,0,True
35.0,-0.1371603012084961,89.04646700620651,-0.6141656373989037,0,True
35.03333333333333,0.30618602037429815,88.90930670499802,-0.6271702266310054,0,True
35.06666666666667,0.33887219429016113,89.21549272537231,-0.44074970010817693,0,True
35.1,0.024706602096557617,89.55436491966248,-0.2179954121200345,0,True
35.13333333333333,0.028060495853424076,89.57907152175903,-0.12972372868945972,0,True
35.166666666666664,-0.2440797686576843,89.60713201761246,-0.2777128766042692,0,True
35.2,-0.41781538724899286,89.36305224895477,-0.644015521322647,0,True
35.233333333333334,-0.394061803817749,88.94523686170578,-1.089180078320863,0,True
35.266666666666666,-0.24444329738616943,88.55117505788803,-1.4043878068736235,0,True
35.3,0.08528795838356017,88.30673176050186,-1.4006258956135718,0,True
35.333333333333336,1.0033595561981203,88.39201971888542,-0.9989950307604059,0,True
35.36666666666667,0.9243502616882324,89.39537927508354,-0.2796127267935988,0,True
35.4,0.9871397018432617,90.31972953677177,0.5395916871514341,0,True
35.43333333333333,-0.1426936388015747,91.30686923861504,1.1898224731511677,0,True
35.46666666666667,-0.4119560718536377,91.16417559981346,1.4639190920227847,0,True
35.5,-0.4390020370483398,90.75221952795982,1.2996361595631196,0,True
35.53333333333333,-0.3701704740524292,90.31321749091148,0.7966632731317004,0,True
35.56666666666667,-0.3149779438972473,89.94304701685905,0.16675766833362077,0,True
35.6,-0.2683748602867126,89.62806907296181,-0.35437116276485425,0,True
35.63333333333333,0.06315469741821289,89.3596942126751,-0.5961285676695037,0,True
35.666666666666664,0.2818444073200225,89.42284891009331,-0.5122486457214402,0,True
35.7,0.5493122935295106,89.70469331741333,-0.1914143584810648,0,True
35.733333333333334,0.5494029521942138,90.25400561094284,0.1845011466365536,0,True
35.766666666666666,-0.15431761741638184,90.80340856313705,0.42006233184451897,0,True
35.8,-0.4459092020988464,90.64909094572067,0.391772242210508,0,True
35.833333333333336,-0.4504335522651672,90.20318174362183,0.10117442658431208,0,True
35.86666666666667,-0.3278823494911194,89.75274819135666,-0.32913720437794103,0,True
35.9,0.06510621309280396,89.42486584186554,-0.7129857015405632,0,True
35.93333333333333,0.027868270874023438,89.48997205495834,-0.8828203770962824,0,True
35.96666666666667,0.20390942692756656,89.51784032583237,-0.760232156652539,0,True
36.0,0.47421157360076904,89.72174975275993,-0.38757334018990125,0,True
36.03333333333333,0.6542799472808838,90.1959613263607,0.08996362215235468,0,True
36.06666666666667,0.3384169638156891,90.85024127364159,0.485437350251944,0,True
36.1,-0.3983615040779114,91.18865823745728,0.6514871903639357,0,True
36.13333333333333,-0.4182170629501343,90.79029673337936,0.5465173715619934,0,True
36.166666666666664,-0.39273381233215326,90.37207967042923,0.2527066125651875,0,True
36.2,-0.32220923900604254,89.97934585809708,-0.06473938820249701,0,True
36.233333333333334,0.26416465640068054,89.65713661909103,-0.2370146958680405,0,True
36.266666666666666,0.25183895230293274,89.92130127549171,-0.17039841415620055,0,True
36.3,0.4705929756164551,90.17314022779465,0.1132192163488885,0,True
36.333333333333336,0.2705054879188537,90.6437332034111,0.491279014996915,0,True
36.36666666666667,0.11507546901702881,90.91423869132996,0.80138561725688,0,True
36.4,-0.12522208690643313,91.02931416034698,0.9179358781981347,0,True
36.43333333333333,-0.41306942701339716,90.90409207344055,0.8086316059668928,0,True
36.46666666666667,-0.5020347833633423,90.49102264642715,0.544814151512849,0,True
36.5,-0.37558829784393305,89.98898786306381,0.26064631165599034,0,True
36.53333333333333,0.18354973196983337,89.61339956521988,0.08062083821398092,0,True
36.56666666666667,0.30699113011360163,89.79694929718971,0.052078812594656576,0,True
36.6,0.12738540768623352,90.10394042730331,0.1187220253086543,0,True
36.63333333333333,-0.23226356506347656,90.23132583498955,0.14977919339909568,0,True
36.666666666666664,-0.31210595369338984,89.99906226992607,0.009373421858802054,0,True
36.7,-0.46656906604766846,89.68695631623268,-0.3690448611872586,0,True
36.733333333333334,-0.44908010959625244,89.22038725018501,-0.9377808370134206,0,True
36.766666666666666,-0.41075980663299555,88.77130714058876,-1.5387920345304438,0,True
36.8,-0.26390910148620605,88.36054733395576,-1.9562852068416392,0,True
36.833333333333336,0.04762756824493408,88.09663823246956,-2.0003782218708195,0,True
36.86666666666667,1.0155485868453982,88.14426580071449,-1.5908495929265145,0,True
36.9,0.8972048759460449,89.15981438755989,-0.8047424102927894,0,True
36.93333333333333,0.8508589863777161,90.05701926350594,0.13872273646709707,0,True
36.96666666666667,0.42237254977226263,90.90787824988365,0.9559736568957626,0,True
37.0,-0.07861673831939697,91.33025079965591,1.4086327930374765,0,True
37.03333333333333,-0.40594679117202753,91.25163406133652,1.3972126283518922,0,True
37.06666666666667,-0.4395177960395813,90.84568727016449,0.9983767644088338,0,True
37.1,-0.42449814081192017,90.40616947412491,0.43025272111263874,0,True
37.13333333333333,-0.2524505257606506,89.98167133331299,-0.03947748202622463,0,True
37.166666666666664,0.139535129070282,89.72922080755234,-0.20529300105865392,0,True
37.2,0.6341096758842469,89.86875593662262,-0.009859154834784464,0,True
37.233333333333334,1.3887114524841309,90.50286561250687,0.4330405663551211,0,True
37.266666666666666,-0.314723253250122,91.891577064991,0.8918791108903408,0,True
37.3,-0.17716181278228757,91.57685381174088,1.1246447666126556,0,True
37.333333333333336,-0.3522896766662597,91.39969199895859,0.9884690442540244,0,True
37.36666666666667,-0.3030455708503723,91.04740232229233,0.5004366233100497,0,True
37.4,-0.41390264034271235,90.74435675144196,-0.17217576730126272,0,True
37.43333333333333,-0.2359402179718018,90.33045411109924,-0.7810596364785853,0,True
37.46666666666667,-0.23756259679794312,90.09451389312744,-1.0959771891764465,0,True
37.5,1.0076944828033447,89.8569512963295,-0.9980299615059977,0,True
37.53333333333333,1.0357398986816406,90.86464577913284,-0.5317624703799098,0,True
37.56666666666667,0.06924107670783997,91.90038567781448,0.10768782998771242,0,True
37.6,0.5318098068237305,91.96962675452232,0.649707652888093,0,True
37.63333333333333,-0.05157041549682617,92.50143656134605,0.8540706243627814,0,True
37.666666666666664,-0.3820546269416809,92.44986614584923,0.6050062369997983,0,True
37.7,-0.39415460824966425,92.06781151890755,-0.03997013324080164,0,True
37.733333333333334,-0.454936146736145,91.67365691065788,-0.8630019276674172,0,True
37.766666666666666,-0.39324879646301264,91.21872076392174,-1.5585685476471862,0,True
37.8,0.06318947672843933,90.82547196745872,-1.844540903214724,0,True
37.833333333333336,1.0208009481430054,90.88866144418716,-1.5738637115815108,0,True
37.86666666666667,1.4912854433059695,91.90946239233017,-0.80161471837866,0,True
37.9,1.4396893978118896,93.40074783563614,0.22764075785347004,0,True
37.93333333333333,0.10181713104248045,94.84043723344803,1.174401680705794,0,True
37.96666666666667,0.012265801429748535,94.94225436449051,1.7403448805922614,0,True
38.0,-0.028298854827880852,94.95452016592026,1.782588940357445,0,True
38.03333333333333,-0.3819597363471985,94.92622131109238,1.3572764636959531,0,True
38.06666666666667,-0.3238997459411621,94.54426157474518,0.682011781728562,0,True
38.1,-0.25797843933105463,94.22036182880402,0.040155477782922576,0,True
38.13333333333333,0.3252592086791992,93.96238338947296,-0.3338374713717682,0,True
38.166666666666664,0.2701656818389892,94.28764259815216,-0.34585368063213906,0,True
38.2,0.6049991250038146,94.55780827999115,-0.07591136212490185,0,True
38.233333333333334,1.244273066520691,95.16280740499496,0.26095482952822874,0,True
38.266666666666666,-0.25283944606781006,96.40708047151566,0.4149241057270108,0,True
38.3,-0.3807915449142456,96.15424102544785,0.22304876800179152,0,True
38.333333333333336,-0.4458291530609131,95.7734494805336,-0.3039667261313661,0,True
38.36666666666667,-0.39083737134933466,95.32762032747269,-0.9753692867546672,0,True
38.4,-0.15350478887557983,94.93678295612335,-1.501031750451925,0,True
38.43333333333333,0.7135934233665466,94.78327816724777,-1.6225908156099453,0,True
38.46666666666667,1.2751743793487549,95.49687159061432,-1.2346176220955396,0,True
38.5,1.2210066318511963,96.77204596996307,-0.439462445594815,0,True
38.53333333333333,0.4846447110176086,97.99305260181427,0.490287676898833,0,True
38.56666666666667,1.0215981006622314,98.47769731283188,1.2241192842990245,0,True
38.6,-0.23171919584274295,99.49929541349411,1.5097672280723957,0,True
38.63333333333333,-0.45975387096405024,99.26757621765137,1.2753236645655897,0,True
38.666666666666664,-0.42805844545364374,98.80782234668732,0.6556125699709001,0,True
38.7,-0.29635441303253174,98.37976390123367,-0.06818406184407073,0,True
38.733333333333334,-0.12193703651428221,98.08340948820114,-0.5904652903901664,0,True
38.766666666666666,0.8459860682487488,97.96147245168686,-0.7125161235440577,0,True
38.8,0.9695292711257936,98.80745851993561,-0.42614625094530423,0,True
38.833333333333336,0.7963501214981078,99.7769877910614,0.08781116283760167,0,True
38.86666666666667,0.12795889377593997,100.57333791255951,0.5459602304012607,0,True
38.9,0.1169360876083374,100.70129680633545,0.6938110990973595,0,True
38.93333333333333,-0.22725754976272586,100.81823289394379,0.42247767710411094,0,True
38.96666666666667,-0.41359078884124756,100.59097534418106,-0.17932564070324988,0,True
39.0,-0.4290305972099304,100.17738455533981,-0.858734509336233,0,True
39.03333333333333,-0.2471737265586853,99.74835395812988,-1.305218581046642,0,True
39.06666666666667,0.8094059824943541,99.5011802315712,-1.2887459017020468,0,True
39.1,1.4404780864715576,100.31058621406555,-0.7701565808335008,0,True
39.13333333333333,1.4934663772583008,101.75106430053711,0.07143721794137982,0,True
39.166666666666664,0.5534539222717285,103.24453067779541,0.9145201779806642,0,True
39.2,-0.060716807842254646,103.79798460006714,1.4408712845776872,0,True
39.233333333333334,-0.4803540706634522,103.73726779222488,1.4779319153367503,0,True
39.266666666666666,-0.3773925304412842,103.25691372156143,1.067421841673453,0,True
39.3,-0.2672192454338074,102.87952119112015,0.43217048437350375,0,True
39.333333333333336,-0.19354236125946042,102.61230194568634,-0.13487194455180573,0,True
39.36666666666667,0.636094331741333,102.41875958442688,-0.4031810015850721,0,True
39.4,1.065010190010071,103.05485391616821,-0.29957171243642416,0,True
39.43333333333333,0.3211734890937805,104.11986410617828,0.0722937394778432,0,True
39.46666666666667,0.17191687226295474,104.44103759527206,0.4892690381963077,0,True
39.5,-0.1794267892837524,104.61295446753502,0.7094157355619307,0,True
39.53333333333333,-0.010073184967041014,104.43352767825127,0.5692073262492993,0,True
39.56666666666667,-0.23897528648376465,104.42345449328423,0.04355110135163989,0,True
39.6,-0.32993888854980463,104.18447920680046,-0.7429458969810698,0,True
39.63333333333333,-0.3041664958000183,103.85454031825066,-1.5512020293567765,0,True
39.666666666666664,-0.2873867154121399,103.55037382245064,-2.1014517218202062,0,True
39.7,0.1344251036643982,103.2629871070385,-2.1703956071431274,0,True
39.733333333333334,1.1280862092971802,103.3974122107029,-1.6835229534118337,0,True
39.766666666666666,1.6121751070022583,104.52549842000008,-0.7633093996531266,0,True
39.8,1.4488716125488281,106.13767352700233,0.30018960578461895,0,True
39.833333333333336,-0.16483378410339355,107.58654513955116,1.1577239237448176,0,True
39.86666666666667,0.12279444932937623,107.42171135544777,1.544324038948947,0,True
39.9,-0.5663506984710693,107.54450580477715,1.388851292540037,0,True
39.93333333333333,-0.39180779457092285,106.97815510630608,0.8373798536393519,0,True
39.96666666666667,-0.29818427562713623,106.58634731173515,0.18297597217772038,0,True
40.0,-0.11605399847030641,106.28816303610802,-0.263696349569,0,True
40.03333333333333,0.6450372338294983,106.17210903763771,-0.3070636550357656,0,True
40.06666666666667,1.201573133468628,106.81714627146721,0.05261051050453171,0,True
40.1,0.5293136835098265,108.01871940493584,0.6248523425401977,0,True
40.13333333333333,0.10667532682418822,108.54803308844566,1.1184327794217086,0,True
40.166666666666664,-0.19221997261047363,108.65470841526985,1.2730571071985552,0,True
40.2,-0.3908510208129883,108.46248844265938,0.973306458290184,0,True
40.233333333333334,-0.5213443040847777,108.07163742184639,0.2978352532134118,0,True
40.266666666666666,-0.41098201274871826,107.55029311776161,-0.511599369797549,0,True
40.3,-0.25642549991607666,107.1393111050129,-1.14590400831783,0,True
40.333333333333336,0.14927425980567932,106.88288560509682,-1.3527823552493463,0,True
40.36666666666667,0.9401965737342834,107.0321598649025,-1.042786890783012,0,True
40.4,1.4527883529663086,107.97235643863678,-0.33361432528024604,0,True
40.43333333333333,0.6393747329711915,109.42514479160309,0.4914322485304116,0,True
40.46666666666667,0.02184164524078369,110.06451952457428,1.0986804207926122,0,True
40.5,-0.24085009098052976,110.08636116981506,1.243323239754489,0,True
40.53333333333333,-0.5502527952194213,109.84551107883453,0.8695906041234214,0,True
40.56666666666667,-0.5505605936050415,109.29525828361511,0.12987781845067692,0,True
40.6,-0.24615556001663214,108.74469769001007,-0.6802192092265309,0,True
40.63333333333333,0.027258515357971195,108.49854212999344,-1.2405392231398054,0,True
40.666666666666664,0.44689330458641047,108.52580064535141,-1.3314525455223443,0,True
40.7,0.9183055162429808,108.97269394993782,-0.9190258046970615,0,True
40.733333333333334,1.1319004297256472,109.8909994661808,-0.16909945718552372,0,True
40.766666666666666,0.6313605904579163,111.02289989590645,0.615822747437408,0,True
40.8,-0.04393470287322998,111.65426048636436,1.1138717702375225,0,True
40.833333333333336,-0.2571236491203308,111.61032578349113,1.1094076567843705,0,True
40.86666666666667,-0.4280051589012146,111.3532021343708,0.5773138222559822,0,True
40.9,-0.45365434885025024,110.92519697546959,-0.30481859725834054,0,True
40.93333333333333,-0.3798649311065674,110.47154262661934,-1.2183942923140476,0,True
40.96666666666667,-0.20530772209167483,110.09167769551277,-1.8169326397149876,0,True
41.0,0.7325589060783385,109.8863699734211,-1.8533248714748787,0,True
41.03333333333333,1.2862229347229004,110.61892887949944,-1.2770919456712493,0,True
41.06666666666667,1.4155781269073486,111.90515181422234,-0.26186468554323383,0,True
41.1,1.164333701133728,113.32072994112968,0.8543459587085223,0,True
41.13333333333333,0.211909681558609,114.48506364226341,1.6964250981817475,0,True
41.166666666666664,-0.41433256864547724,114.69697332382202,1.9942240924337444,0,True
41.2,-0.4559252262115478,114.28264075517654,1.6787814816853688,0,True
41.233333333333334,-0.4036617279052735,113.826715528965,0.8955566321278389,0,True
41.266666666666666,-0.375748872756958,113.42305380105972,-0.062472192532370206,0,True
41.3,-0.1124511957168579,113.04730492830276,-0.8674035943267139,0,True
41.333333333333336,0.061582714319229126,112.9348537325859,-1.2707543431117239,0,True
41.36666666666667,0.821974515914917,112.99643644690514,-1.1830122005836412,0,True
41.4,0.6477189064025878,113.81841096282005,-0.6956472503851002,0,True
41.43333333333333,0.8478463888168335,114.46612986922264,-0.03955680309381872,0,True
41.46666666666667,0.3344347178936004,115.31397625803947,0.5061145090275279,0,True
41.5,-0.0502256155014038,115.64841097593307,0.7223049528737487,0,True
41.53333333333333,-0.3057642579078674,115.59818536043167,0.534808623806978,0,True
41.56666666666667,-0.28612053394317627,115.2924211025238,0.04242460007865306,0,True
41.6,-0.3891595602035522,115.00630056858063,-0.5232126253065886,0,True
41.63333333333333,-0.09821176528930663,114.61714100837708,-0.8917133584149743,0,True
41.666666666666664,0.3178835809230804,114.51892924308777,-0.8666908874276129,0,True
41.7,1.2829015254974365,114.83681282401085,-0.41227365100076746,0,True
41.733333333333334,1.164912462234497,116.11971434950829,0.3259343888478348,0,True
41.766666666666666,0.179338276386261,117.28462681174278,1.079617102175655,0,True
41.8,-0.19699716567993164,117.46396508812904,1.5713309963505577,0,True
41.833333333333336,-0.3771756887435913,117.26696792244911,1.628228659536394,0,True
41.86666666666667,-0.4339078068733216,116.88979223370552,1.2442221578175179,0,True
41.9,-0.40784168243408203,116.4558844268322,0.5707730458017064,0,True
41.93333333333333,-0.3940610885620117,116.04804274439812,-0.14949440712449052,0,True
41.96666666666667,-0.20965003967285153,115.6539816558361,-0.6751304724501334,0,True
42.0,0.036302804946899414,115.44433161616325,-0.8517919709457527,0,True
42.03333333333333,0.4172237813472748,115.48063442111015,-0.6653660892455516,0,True
42.06666666666667,0.8013459444046019,115.89785820245743,-0.24476634509222575,0,True
42.1,0.09128516912460329,116.69920414686203,0.18945020890988498,0,True
42.13333333333333,-0.13130235671997068,116.79048931598663,0.41469057119158553,0,True
42.166666666666664,-0.40144008398056025,116.65918695926666,0.2994375450444827,0,True
42.2,-0.36675882339477545,116.2577468752861,-0.13910592526700954,0,True
42.233333333333334,-0.4075141549110413,115.89098805189133,-0.7366887950704024,0,True
42.266666666666666,-0.29685962200164795,115.48347389698029,-1.2425766766474962,0,True
42.3,-0.026482939720153805,115.18661427497864,-1.4176951917125322,0,True
42.333333333333336,0.27883386611938477,115.16013133525848,-1.1356951755355842,0,True
42.36666666666667,1.575657367706299,115.43896520137787,-0.4468745642531695,0,True
42.4,1.23027765750885,117.01462256908417,0.4283607055685268,0,True
42.43333333333333,-0.0740811824798584,118.24490022659302,1.1840244593466651,0,True
42.46666666666667,-0.3770942687988282,118.17081904411316,1.557676200060293,0,True
42.5,-0.4393081068992614,117.79372477531433,1.4409965039694528,0,True
42.53333333333333,-0.3808660507202148,117.35441666841507,0.918065048073967,0,True
42.56666666666667,-0.38387167453765875,116.97355061769485,0.21951727432515303,0,True
42.6,-0.3406827449798583,116.5896789431572,-0.37922099918470736,0,True
42.63333333333333,0.2758763432502747,116.24899619817734,-0.6705419662486043,0,True
42.666666666666664,0.2921631336212158,116.52487254142761,-0.5953550031565016,0,True
42.7,0.9599719643592834,116.81703567504883,-0.2619695272813074,0,True
42.733333333333334,0.29693803191185,117.77700763940811,0.10532433304869408,0,True
42.766666666666666,-0.1743757724761963,118.07394567131996,0.2686419335417559,0,True
42.8,-0.4080804586410522,117.89956989884377,0.08631381413893624,0,True
42.833333333333336,-0.3978538513183594,117.49148944020271,-0.4191258486027223,0,True
42.86666666666667,-0.29969924688339233,117.09363558888435,-1.0647893413706648,0,True
42.9,-0.024913728237152096,116.79393634200096,-1.5803352370539552,0,True
42.93333333333333,0.10188746452331543,116.76902261376381,-1.7194109866691538,0,True
42.96666666666667,0.6638479828834534,116.87091007828712,-1.3660215237813393,0,True
43.0,1.4699132442474365,117.53475806117058,-0.5931807597555547,0,True
43.03333333333333,1.2832123041152952,119.00467130541801,0.3548948612215801,0,True
43.06666666666667,0.22119057178497314,120.28788360953331,1.1572686308868987,0,True
43.1,-0.3622872829437256,120.50907418131828,1.5498336874009637,0,True
43.13333333333333,-0.43651145696640015,120.14678689837456,1.4352137491817571,0,True
43.166666666666664,-0.3896116614341736,119.71027544140816,0.9167007612909498,0,True
43.2,-0.4117514491081238,119.32066377997398,0.24477266976791512,0,True
43.233333333333334,-0.2279800176620483,118.90891233086586,-0.2937490840749407,0,True
43.266666666666666,0.42638957500457764,118.68093231320381,-0.4939762797450584,0,True
43.3,0.44798713922500605,119.10732188820839,-0.31113812058113605,0,True
43.333333333333336,0.8202891349792479,119.5553090274334,0.1312832472682831,0,True
43.36666666666667,0.38800081610679626,120.37559816241264,0.6054959912098965,0,True
43.4,-0.17095607519149777,120.76359897851944,0.8868020391092573,0,True
43.43333333333333,-0.4550482034683228,120.59264290332794,0.8554391481000408,0,True
43.46666666666667,-0.5055108070373536,120.13759469985962,0.5455344659188774,0,True
43.5,-0.418127954006195,119.63208389282227,0.11946875596311445,0,True
43.53333333333333,-0.18357157707214353,119.21395593881607,-0.21733636404475742,0,True
43.56666666666667,0.3074437379837036,119.03038436174393,-0.3182479519408519,0,True
43.6,0.7676828503608705,119.33782809972763,-0.1645657728799745,0,True
43.63333333333333,0.10708931088447572,120.1055109500885,0.13047852851200636,0,True
43.666666666666664,-0.3448753356933594,120.21260026097298,0.3822563636113234,0,True
43.7,-0.206304669380188,119.86772492527962,0.4263017813997358,0,True
43.733333333333334,-0.4233952760696411,119.66142025589943,0.19513110134679484,0,True
43.766666666666666,-0.3716062307357788,119.23802497982979,-0.2513700820684495,0,True
43.8,-0.4153992533683777,118.86641874909401,-0.7488285485416433,0,True
43.833333333333336,-0.3518863320350647,118.45101949572563,-1.0923025358086138,0,True
43.86666666666667,0.02419966459274292,118.09913316369057,-1.1181022959177929,0,True
43.9,0.8627134561538695,118.12333282828331,-0.7739663356618488,0,True
43.93333333333333,0.7939374446868895,118.98604628443718,-0.1478639099583629,0,True
43.96666666666667,0.33810785412788397,119.77998372912407,0.5613831282155306,0,True
44.0,-0.12455379962921141,120.11809158325195,1.1216732625778252,0,True
44.03333333333333,-0.23999667167663574,119.99353778362274,1.357811089464389,0,True
44.06666666666667,-0.3747453093528748,119.7535411119461,1.213941954424054,0,True
44.1,-0.4677820205688476,119.37879580259323,0.7658184260599391,0,True
44.13333333333333,-0.4185771942138672,118.91101378202438,0.1847789717005616,0,True
44.166666666666664,-0.2565380930900574,118.49243658781052,-0.3286123376048248,0,True
44.2,-0.15473473072052,118.23589849472046,-0.6175602689458022,0,True
44.233333333333334,-0.07116281986236572,118.08116376399994,-0.6256291262137447,0,True
44.266666666666666,0.5427149534225464,118.01000094413757,-0.4183908420578539,0,True
44.3,0.3440163135528564,118.55271589756012,-0.159658041845931,0,True
44.333333333333336,-0.1904236674308777,118.89673221111298,-0.045314480821184965,0,True
44.36666666666667,-0.48383283615112305,118.7063085436821,-0.216568422971108,0,True
44.4,-0.4263095259666443,118.22247570753098,-0.689083905717937,0,True
44.43333333333333,-0.4611368179321289,117.79616618156433,-1.3315395882394663,0,True
44.46666666666667,-0.36084306240081787,117.3350293636322,-1.906376250147921,0,True
44.5,-0.3436493277549743,116.97418630123138,-2.159971020977227,0,True
44.53333333333333,0.7693274617195129,116.63053697347641,-1.9296387989216317,0,True
44.56666666666667,1.1727148294448855,117.39986443519592,-1.2237279592047872,0,True
44.6,1.2779744863510132,118.57257926464081,-0.2342641868813617,0,True
44.63333333333333,0.4574978351593017,119.85055375099182,0.7328522338174146,0,True
44.666666666666664,-0.10102784633636473,120.30805158615112,1.3832923609880414,0,True
44.7,-0.43870389461517334,120.20702373981476,1.556373486831454,0,True
44.733333333333334,-0.4632401466369628,119.76831984519958,1.2859544425200498,0,True
44.766666666666666,-0.4226691722869873,119.30507969856262,0.7754054366971953,0,True
44.8,-0.22429949045181274,118.88241052627563,0.3034345729964499,0,True
44.833333333333336,0.11304286122322081,118.65811103582382,0.10490927680107026,0,True
44.86666666666667,0.5058857798576356,118.77115389704704,0.276365324640822,0,True
44.9,0.6762146353721619,119.27703967690468,0.743160777865639,0,True
44.93333333333333,0.7009913921356201,119.95325431227684,1.3001963856770873,0,True
44.96666666666667,-0.311522901058197,120.65424570441246,1.7076776659729276,0,True
45.0,-0.45775818824768066,120.34272280335426,1.7982519695486046,0,True
45.03333333333333,-0.41658860445022583,119.88496461510658,1.5458163645932659,0,True
45.06666666666667,-0.43986147642135615,119.46837601065636,1.0663119138759098,0,True
45.1,-0.3845689296722412,119.028514534235,0.5556407977830053,0,True
45.13333333333333,-0.266782283782959,118.64394560456276,0.19737890227176552,0,True
45.166666666666664,0.6081200242042542,118.3771633207798,0.081571813748776,0,True
45.2,0.20127353072166446,118.98528334498405,0.16842712210298888,0,True
45.233333333333334,-0.06461030244827272,119.18655687570572,0.31132001785110935,0,True
45.266666666666666,-0.4039496183395386,119.12194657325745,0.32666171287439716,0,True
45.3,-0.2847368717193603,118.71799695491791,0.0771532803584813,0,True
45.333333333333336,-0.3947339057922363,118.43326008319855,-0.4666521962155883,0,True
45.36666666666667,-0.45486581325531006,118.03852617740631,-1.2068495186739865,0,True
45.4,-0.44166982173919683,117.583660364151,-1.9446676585526494,0,True
45.43333333333333,-0.23506003618240354,117.1419905424118,-2.445561835972218,0,True
45.46666666666667,0.4976176619529724,116.9069305062294,-2.5255053394553286,0,True
45.5,0.45056948065757746,117.40454816818237,-2.1302794478084603,0,True
45.53333333333333,1.1656702756881714,117.85511764883995,-1.3745739063525617,0,True
45.56666666666667,1.2855992317199707,119.02078792452812,-0.516677387234449,0,True
45.6,0.07340356707572936,120.30638715624809,0.13168846491424135,0,True
45.63333333333333,-0.20852613449096682,120.37979072332382,0.3297817019231406,0,True
45.666666666666664,-0.28076696395874023,120.17126458883286,0.013456034646650673,0,True
45.7,-0.36836671829223633,119.89049762487411,-0.6671154668167084,0,True
45.733333333333334,-0.32480585575103754,119.52213090658188,-1.396403988264797,0,True
45.766666666666666,-0.15113174952108163,119.19732505083084,-1.8115896040671184,0,True
45.8,1.293834185928165,119.04619330130976,-1.6460040258035475,0,True
45.833333333333336,1.624815555649243,120.34002748723792,-0.8417882543792009,0,True
45.86666666666667,1.451167644769799,121.96484304288717,0.4180063053327395,0,True
45.9,1.4689674817123481,123.41601068765696,1.7759947413849786,0,True
45.93333333333333,0.20451635049236747,124.88497816936932,2.8379082280348733,0,True
45.96666666666667,0.030255498515994312,125.08949451986169,3.3200842711047036,0,True
46.0,-0.35998492533873827,125.11975001837769,3.144972692654191,0,True
46.03333333333333,-0.410636399947545,124.75976509303895,2.4508656926390224,0,True
46.06666666666667,-0.37180668815800155,124.3491286930914,1.5215666443683553,0,True
46.1,-0.12354034788715242,123.9773220049334,0.6715306713019419,0,True
46.13333333333333,0.3124918310831818,123.85378165704624,0.1322106498775737,0,True
46.166666666666664,0.3466356087554328,124.16627348812942,-0.021354413110950175,0,True
46.2,0.4455465100104709,124.51290909688485,0.11796660444310801,0,True
46.233333333333334,0.5956436442620991,124.95845560689533,0.33951301558218056,0,True
46.266666666666666,0.017034625627751585,125.55409925115742,0.40635734502598914,0,True
46.3,-0.25080371917337996,125.57113387678518,0.15513182387599464,0,True
46.333333333333336,-0.348552294820983,125.3203301576118,-0.4323738140255948,0,True
46.36666666666667,-0.31065700085925585,124.97177786279083,-1.213652478723272,0,True
46.4,-0.2616917603194729,124.66112086193158,-1.9336387919271074,0,True
46.43333333333333,0.15447911549952664,124.3994291016121,-2.320711487513777,0,True
46.46666666666667,0.7486440034397162,124.55390821711163,-2.1965196803578637,0,True
46.5,0.9166597956727526,125.30255222055135,-1.557497006302279,0,True
46.53333333333333,1.4894758462717625,126.2192120162241,-0.5915600687147,0,True
46.56666666666667,1.4303776432351865,127.70868786249586,0.3847828172717814,0,True
46.6,-0.22932292446848768,129.13906550573105,1.0500665796588085,0,True
46.63333333333333,-0.4277349536884802,128.90974258126258,1.210513994198445,0,True
46.666666666666664,-0.4486752618484508,128.4820076275741,0.8781965322377148,0,True
46.7,-0.38822252514219024,128.03333236572564,0.25610883920998256,0,True
46.733333333333334,-0.07121584227407082,127.64510984058344,-0.3591720974607069,0,True
46.766666666666666,0.42670388781325364,127.57389399830937,-0.7070820855984818,0,True
46.8,0.6971458795290172,128.00059788612262,-0.6662667552306856,0,True
46.833333333333336,0.3709114048815593,128.69774376565164,-0.2915357128571931,0,True
46.86666666666667,0.36045618246365163,129.0686551705332,0.22309565674546974,0,True
46.9,0.7571989566347226,129.42911135299684,0.6330827392717532,0,True
46.93333333333333,-0.3809722978953588,130.18631030963155,0.7461678676512,0,True
46.96666666666667,-0.4177960028070497,129.80533801173618,0.5010958441373365,0,True
47.0,-0.4316499446547485,129.38754200892913,-0.007434702694564898,0,True
47.03333333333333,-0.33742022867362326,128.9558920642744,-0.5687055752639851,0,True
47.06666666666667,-0.15608182331033152,128.61847183560076,-0.9449962504524476,0,True
47.1,0.8507711824665459,128.46239001229043,-0.9716836944847148,0,True
47.13333333333333,0.4614811317298229,129.313161194757,-0.6252970781325846,0,True
47.166666666666664,0.6883239009924728,129.7746423264868,-0.030624410939276342,0,True
47.2,0.3568890977403138,130.46296622747928,0.5942492290886318,0,True
47.233333333333334,0.15168806872019466,130.8198553252196,1.028546237844509,0,True
47.266666666666666,-0.3679435444415009,130.9715433939398,1.1355950610616365,0,True
47.3,-0.43067219313033706,130.60359984949832,0.9112135011440725,0,True
47.333333333333336,-0.3839684724807739,130.172927656368,0.4766303669623601,0,True
47.36666666666667,-0.27084819565053886,129.78895918388721,0.022047457883749646,0,True
47.4,-0.13999499687856895,129.51811098823669,-0.2735098294503094,0,True
47.43333333333333,0.29878054592308245,129.37811599135813,-0.3127029593603914,0,True
47.46666666666667,0.4833516144924337,129.6768965372812,-0.11316984138771133,0,True
47.5,0.021278332928113163,130.16024815177363,0.20828251343949356,0,True
47.53333333333333,0.055728224353505496,130.18152648470175,0.4918043637316493,0,True
47.56666666666667,-0.17432179512139087,130.23725470905526,0.6048979716257911,0,True
47.6,-0.2941383008226497,130.06293291393388,0.49671943306504,0,True
47.63333333333333,-0.2785622327889725,129.76879461311123,0.2157245315534473,0,True
47.666666666666664,-0.3723355114988121,129.49023238032225,-0.11398901175026624,0,True
47.7,-0.2994684333022913,129.11789686882344,-0.3475878622931215,0,True
47.733333333333334,0.008966778689912669,128.81842843552116,-0.38476124748258156,0,True
47.766666666666666,0.6266917762933576,128.82739521421107,-0.21871350567220443,0,True
47.8,0.18982018619301116,129.45408699050444,0.05509772161896055,0,True
47.833333333333336,0.0700852321290647,129.64390717669744,0.27924692951076086,0,True
47.86666666666667,-0.34565276725980715,129.7139924088265,0.3078174703125586,0,True
47.9,-0.4057240444394139,129.36833964156668,0.07819120046793518,0,True
47.93333333333333,-0.4914875691051379,128.96261559712727,-0.3534892295742813,0,True
47.96666666666667,-0.36945119232479007,128.47112802802212,-0.829641126184073,0,True
48.0,0.08583306861303062,128.10167683569733,-1.1537403218146276,0,True
48.03333333333333,0.35798743326857646,128.18750990431036,-1.1716750936951836,0,True
48.06666666666667,0.2876585059827663,128.54549733757895,-0.8387359400905289,0,True
48.1,0.6362828980356205,128.8331558435617,-0.24558535816212285,0,True
48.13333333333333,0.7642561343890146,129.46943874159734,0.40787779641037586,0,True
48.166666666666664,0.3920839920781803,130.23369487598634,0.884205191078642,0,True
48.2,-0.3613215401901952,130.62577886806451,1.0022240860900944,0,True
48.233333333333334,-0.441549888140797,130.2644573278743,0.7162208712107223,0,True
48.266666666666666,-0.4662681342962893,129.8229074397335,0.14349576998781088,0,True
48.3,-0.28761625220588544,129.35663930543723,-0.4767270969792111,0,True
48.333333333333336,-0.24137299283295252,129.06902305323135,-0.8789329367347621,0,True
48.36666666666667,0.959331190964375,128.82765006039838,-0.8826098488337013,0,True
48.4,0.6039668203366878,129.78698125136276,-0.4721157214631291,0,True
48.43333333333333,0.9988723077117444,130.39094807169946,0.1910763914587452,0,True
48.46666666666667,0.6020136943581353,131.3898203794112,0.8319427211263859,0,True
48.5,-0.11452532251690115,131.99183407376933,1.175557682726394,0,True
48.53333333333333,-0.3692761055796824,131.87730875125243,1.0623192680052918,0,True
48.56666666666667,-0.4410699971342695,131.50803264567276,0.5156398302145317,0,True
48.6,-0.4135726294135068,131.0669626485385,-0.2655025602245971,0,True
48.63333333333333,-0.1667874727953173,130.653390019125,-0.9843588091742906,0,True
48.666666666666664,0.07886677455663543,130.4866025463297,-1.3626662793956754,0,True
48.7,0.6781516275181363,130.56546932088634,-1.2509463779384533,0,True
48.733333333333334,1.2552135625175609,131.24362094840447,-0.6905425204204667,0,True
48.766666666666666,0.8779007915229228,132.49883451092202,0.099379957184649,0,True
48.8,0.618513474946439,133.37673530244496,0.8085768841050488,0,True
48.833333333333336,-0.22898542088411505,133.9952487773914,1.1621329145926602,0,True
48.86666666666667,-0.3621934192831622,133.76626335650727,1.0321893803690663,0,True
48.9,-0.39871747162380683,133.4040699372241,0.4868849339852162,0,True
48.93333333333333,-0.40376710891723633,133.0053524656003,-0.2419582114256268,0,True
48.96666666666667,-0.3081256151199341,132.60158535668307,-0.8555350627740571,0,True
49.0,0.4804297685623169,132.29345974156314,-1.108286907318092,0,True
49.03333333333333,1.0148115158081055,132.77388951012546,-0.9039627738308318,0,True
49.06666666666667,0.2596239149570465,133.78870102593356,-0.32951746479957766,0,True
49.1,1.2369132041931152,134.0483249408906,0.3861697969863084,0,True
49.13333333333333,0.29946327209472656,135.28523814508372,0.9701643574271549,0,True
49.166666666666664,-0.3733122944831848,135.58470141717845,1.2183520529374274,0,True
49.2,-0.4251792430877686,135.21138912269527,1.0758235286262934,0,True
49.233333333333334,-0.404990553855896,134.7862098796075,0.65028890241255,0,True
49.266666666666666,-0.3024759292602539,134.3812193257516,0.1545060541690435,0,True
49.3,0.3694841265678406,134.07874339649135,-0.19239384351977296,0,True
49.333333333333336,0.38001978397369385,134.4482275230592,-0.2578242139386981,0,True
49.36666666666667,0.3400442600250244,134.82824730703288,-0.0437294107893306,0,True
49.4,-0.0828888416290283,135.1682915670579,0.32470906876181377,0,True
49.43333333333333,0.6647895574569702,135.08540272542888,0.657411086959634,0,True
49.46666666666667,-0.14909613132476807,135.75019228288585,0.7782248467685162,0,True
49.5,-0.3997909426689148,135.60109615156108,0.5965249972330846,0,True
49.53333333333333,-0.41192692518234253,135.20130520889217,0.14737910176421953,0,True
49.56666666666667,-0.38215017318725586,134.78937828370982,-0.41656219896995234,0,True
49.6,-0.33167731761932373,134.40722811052257,-0.8821188559921339,0,True
49.63333333333333,0.031162679195404053,134.07555079290324,-1.0617458971999354,0,True
49.666666666666664,0.853891909122467,134.10671347209865,-0.8748420408705372,0,True
49.7,0.7039716243743896,134.96060538122111,-0.38860343318274737,0,True
49.733333333333334,0.554296612739563,135.6645770055955,0.2031825822437612,0,True
49.766666666666666,0.011708796024322512,136.21887361833507,0.657091849467544,0,True
49.8,-0.33239591121673584,136.2305824143594,0.7786314853509817,0,True
49.833333333333336,-0.384496808052063,135.89818650314265,0.4987893734086307,0,True
49.86666666666667,-0.4587032794952392,135.5136896950906,-0.10146890251517308,0,True
49.9,-0.3702354431152344,135.05498641559535,-0.8236276027241476,0,True
49.93333333333333,-0.3361811637878418,134.68475097248012,-1.4243319309442306,0,True
49.96666666666667,0.2602594494819641,134.34856980869228,-1.7009501537633485,0,True
50.0,0.5813301801681519,134.60882925817424,-1.560817412963875,0,True
50.03333333333333,1.2291247844696045,135.1901594383424,-1.05010018822187,0,True
50.06666666666667,0.23597890138626101,136.419284222812,-0.3317589741609437,0,True
50.1,0.24948021769523618,136.65526312419826,0.3768998437363258,0,True
50.13333333333333,0.34268784523010254,136.9047433418935,0.8790917750616086,0,True
50.166666666666664,0.33008840680122375,137.2474311871236,1.0574379996740808,0,True
50.2,-0.3606783151626587,137.57751959392482,,0,True
50.233333333333334,-0.31784141063690186,137.21684127876216,,0,True
50.266666666666666,-0.2836647629737854,136.89899986812526,,0,True
50.3,-0.13121193647384644,136.61533510515147,,0,True
50.333333333333336,0.6252056360244751,136.48412316867763,,0,True
50.36666666666667,0.148106575012207,137.1093288047021,,0,True
50.4,0.43751633167266846,137.2574353797143,,0,True
50.43333333333333,0.5211477279663086,137.69495171138698,,0,True
50.46666666666667,0.2364707887172699,138.2160994393533,,0,True
50.5,-0.15703165531158447,138.45257022807056,,0,True
50.53333333333333,-0.45998537540435785,138.29553857275897,,0,True
50.56666666666667,-0.4511250257492066,137.8355531973546,,0,True
50.6,-0.3517085909843445,137.3844281716054,,0,True
50.63333333333333,0.17023414373397827,137.03271958062106,,0,True
50.666666666666664,0.44043079018592834,137.20295372435504,,0,True
50.7,0.15818729996681213,137.64338451454097,,0,True
50.733333333333334,-0.13258755207061768,137.80157181450778,,0,True
50.766666666666666,0.5929536819458008,137.66898426243716,,0,True
50.8,0.06134551763534546,138.26193794438296,,0,True
50.833333333333336,-0.22138214111328125,138.3232834620183,,0,True
50.86666666666667,-0.38741886615753174,138.10190132090503,,0,True
50.9,-0.4117891788482666,137.7144824547475,,0,True
50.93333333333333,-0.25393176078796387,137.30269327589923,,0,True
50.96666666666667,-0.046234846115112305,137.04876151511127,,0,True
51.0,0.6372027397155762,137.00252666899615,,0,True
51.03333333333333,-0.2604619264602661,137.63972940871173,,0,True
51.06666666666667,-0.008568227291107178,137.37926748225146,,0,True
51.1,-0.050387740135192864,137.37069925496036,,0,True
51.13333333333333,-0.1839224100112915,137.32031151482516,,0,True
51.166666666666664,-0.3402824401855469,137.13638910481387,,0,True
51.2,-0.4451849460601807,136.79610666462833,,0,True
51.233333333333334,-0.4153502583503723,136.35092171856815,,0,True
51.266666666666666,-0.3522487282752991,135.93557146021777,,0,True
51.3,0.28733038902282715,135.58332273194247,,0,True
51.333333333333336,0.8944449424743652,135.8706531209653,,0,True
51.36666666666667,0.8671762943267822,136.76509806343967,,0,True
51.4,0.28230640292167664,137.63227435776645,,0,True
51.43333333333333,0.3692047894001007,137.91458076068812,,0,True
51.46666666666667,-0.12524473667144775,138.28378555008823,,0,True
51.5,-0.29282623529434204,138.15854081341678,,0,True
51.53333333333333,-0.38706254959106445,137.86571457812244,,0,True
51.56666666666667,-0.4531159400939942,137.47865202853137,,0,True
51.6,-0.3461800813674927,137.02553608843738,,0,True
51.63333333333333,-0.25838690996170044,136.67935600706988,,0,True
51.666666666666664,0.5444835424423218,136.42096909710818,,0,True
51.7,0.15870791673660278,136.9654526395505,,0,True
51.733333333333334,0.15741035342216492,137.1241605562871,,0,True
51.766666666666666,,137.28157090970927,,0,False
