time_s,raw_network_derivative,integrated_bvp,base,segment_id,derivative_supported
0.0,-0.36183005571365356,0.0,,0,True
0.03333333333333333,-0.3537919521331787,-0.36183005571365356,,0,True
0.06666666666666667,-0.2752290964126587,-0.7156220078468323,,0,True
0.1,-0.29603636264801025,-0.990851104259491,,0,True
0.13333333333333333,-0.20368444919586182,-1.2868874669075012,,0,True
0.16666666666666666,-0.16949057579040527,-1.490571916103363,,0,True
0.2,0.10615432262420654,-1.6600624918937683,,0,True
0.23333333333333334,-0.2523577809333801,-1.5539081692695618,,0,True
0.26666666666666666,0.17846497893333435,-1.806265950202942,,0,True
0.3,0.019479095935821533,-1.6278009712696075,,0,True
0.3333333333333333,-0.22102618217468262,-1.608321875333786,,0,True
0.36666666666666664,-0.25298869609832764,-1.8293480575084686,,0,True
0.4,-0.3479044437408447,-2.0823367536067963,,0,True
0.43333333333333335,-0.374721884727478,-2.430241197347641,,0,True
0.4666666666666667,-0.2525629997253418,-2.804963082075119,,0,True
0.5,-0.0688886046409607,-3.057526081800461,,0,True
0.5333333333333333,0.42906448245048523,-3.1264146864414215,,0,True
0.5666666666666667,-0.3120995759963989,-2.6973502039909363,,0,True
0.6,0.17031103372573853,-3.009449779987335,,0,True
0.6333333333333333,-0.25737833976745605,-2.8391387462615967,,0,True
0.6666666666666666,0.13794487714767456,-3.0965170860290527,,0,True
0.7,0.20817959308624268,-2.958572208881378,,0,True
0.7333333333333333,0.060950338840484626,-2.7503926157951355,,0,True
0.7666666666666667,-0.0045018792152404785,-2.689442276954651,,0,True
0.8,0.5119099020957947,-2.6939441561698914,,0,True
0.8333333333333334,-0.021444082260131836,-2.1820342540740967,,0,True
0.8666666666666667,0.27800410985946655,-2.2034783363342285,,0,True
0.9,0.09777364134788515,-1.925474226474762,,0,True
0.9333333333333333,-0.2858928442001343,-1.8277005851268768,,0,True
0.9666666666666667,-0.3313833475112915,-2.113593429327011,,0,True
1.0,-0.437366247177124,-2.4449767768383026,,0,True
1.0333333333333334,-0.4999382495880127,-2.8823430240154266,,0,True
1.0666666666666667,-0.368976354598999,-3.3822812736034393,,0,True
1.1,-0.3570515513420105,-3.7512576282024384,,0,True
1.1333333333333333,-0.3565303087234497,-4.108309179544449,,0,True
1.1666666666666667,-0.35647356510162354,-4.464839488267899,,0,True
1.2,-0.36337530612945557,-4.821313053369522,,0,True
1.2333333333333334,-0.31662678718566895,-5.184688359498978,,0,True
1.2666666666666666,-0.3241509199142456,-5.501315146684647,,0,True
1.3,-0.27012521028518677,-5.825466066598892,,0,True
1.3333333333333333,-0.20666801929473877,-6.095591276884079,,0,True
1.3666666666666667,-0.2843329906463623,-6.302259296178818,,0,True
1.4,-0.20480281114578247,-6.58659228682518,,0,True
1.4333333333333333,-0.16848313808441162,-6.7913950979709625,,0,True
1.4666666666666666,-0.21324247121810913,-6.959878236055374,,0,True
1.5,-0.2873404622077942,-7.173120707273483,,0,True
1.5333333333333334,-0.3916247487068176,-7.4604611694812775,,0,True
1.5666666666666667,-0.40591269731521606,-7.852085918188095,,0,True
1.6,-0.22850728034973142,-8.257998615503311,-0.4390887036559815,0,True
1.6333333333333333,-0.26212990283966064,-8.486505895853043,-0.44255149060162063,0,True
1.6666666666666667,-0.14510750770568848,-8.748635798692703,-0.42569780350710684,0,True
1.7,-0.24153506755828857,-8.893743306398392,-0.4031998007531091,0,True
1.7333333333333334,-0.3094865083694458,-9.13527837395668,-0.3925473977569072,0,True
1.7666666666666666,-0.30638933181762695,-9.444764882326126,-0.3979316991467123,0,True
1.8,-0.2881169319152832,-9.751154214143753,-0.40172928758177345,0,True
1.8333333333333333,-0.22734618186950684,-10.039271146059036,-0.3698636193110868,0,True
1.8666666666666667,-0.16415858268737793,-10.266617327928543,-0.26893221204458123,0,True
1.9,-0.06994330883026123,-10.430775910615921,-0.08615874935172751,0,True
1.9333333333333333,-0.07402443885803223,-10.500719219446182,0.1586815976993256,0,True
1.9666666666666666,0.22007521986961365,-10.574743658304214,0.4167306141846963,0,True
2.0,-0.4248098134994507,-10.3546684384346,0.6286932566434682,0,True
2.033333333333333,-0.354619026184082,-10.779478251934052,0.7494693326022521,0,True
2.066666666666667,-0.2529217600822449,-11.134097278118134,0.7647701893699619,0,True
2.1,-0.25181424617767334,-11.387019038200378,0.6909951809378914,0,True
2.1333333333333333,-0.26167750358581543,-11.638833284378052,0.5618379286284287,0,True
2.1666666666666665,-0.3662755489349365,-11.900510787963867,0.41237420600896624,0,True
2.2,-0.3131600022315979,-12.266786336898804,0.26860501823072586,0,True
2.2333333333333334,-0.2570604085922241,-12.579946339130402,0.14410831410748798,0,True
2.2666666666666666,-0.265585720539093,-12.837006747722626,0.04212803223347072,0,True
2.3,-0.23824781179428103,-13.102592468261719,-0.039167658039915114,0,True
2.3333333333333335,-0.27694809436798096,-13.340840280056,-0.10103499193552615,0,True
2.3666666666666667,-0.39078009128570557,-13.61778837442398,-0.14142415759627913,0,True
2.4,-0.23404419422149658,-14.008568465709686,-0.15725216527897526,0,True
2.433333333333333,-0.11454278230667114,-14.242612659931183,-0.15003401935526148,0,True
2.466666666666667,-0.02849435806274414,-14.357155442237854,-0.12932172933933525,0,True
2.5,-0.32094794511795044,-14.385649800300598,-0.10904222722881826,0,True
2.533333333333333,-0.4351538419723511,-14.706597745418549,-0.09868181167635054,0,True
2.566666666666667,-0.39842450618743896,-15.1417515873909,-0.09793709281197803,0,True
2.6,-0.12494087219238281,-15.540176093578339,-0.10112140495046766,0,True
2.6333333333333333,-0.07548707723617554,-15.665116965770721,-0.10709351767871293,0,True
2.6666666666666665,-0.24491506814956665,-15.740604043006897,-0.12348339402694819,0,True
2.7,-0.45051395893096924,-15.985519111156464,-0.1593717856605141,0,True
2.7333333333333334,-0.3707866072654724,-16.436033070087433,-0.2127990919392752,0,True
2.7666666666666666,-0.3086690306663513,-16.806819677352905,-0.2650113975542527,0,True
2.8,-0.20433688163757324,-17.115488708019257,-0.286946361932887,0,True
2.8333333333333335,-0.17753571271896362,-17.31982558965683,-0.2530753619003346,0,True
2.8666666666666667,-0.1913023591041565,-17.497361302375793,-0.15336513388847486,0,True
2.9,-0.19251465797424316,-17.68866366147995,0.0025768892853736277,0,True
2.933333333333333,-0.17955195903778076,-17.881178319454193,0.18930081301368518,0,True
2.966666666666667,-0.13315999507904053,-18.060730278491974,0.373884747020267,0,True
3.0,-0.29503560066223145,-18.193890273571014,0.5251103923781438,0,True
3.033333333333333,-0.33181428909301763,-18.488925874233246,0.620476267013962,0,True
3.066666666666667,-0.2752065062522888,-18.820740163326263,0.6490900675486369,0,True
3.1,-0.36642634868621826,-19.095946669578552,0.61048930829308,0,True
3.1333333333333333,-0.28793346881866455,-19.46237301826477,0.5118723816401037,0,True
3.1666666666666665,-0.435302197933197,-19.750306487083435,0.36651929255207233,0,True
3.2,-0.41989469528198237,-20.185608685016632,0.1936939044748917,0,True
3.2333333333333334,-0.4396732449531556,-20.605503380298615,0.017699396436704824,0,True
3.2666666666666666,-0.30991894006729126,-21.04517662525177,-0.13614869288698878,0,True
3.3,-0.27156352996826166,-21.35509556531906,-0.24804848059701157,0,True
3.3333333333333335,-0.3612253665924072,-21.626659095287323,-0.3095739465276041,0,True
3.3666666666666667,-0.2892196178436279,-21.98788446187973,-0.32602737119116015,0,True
3.4,-0.19683414697647092,-22.277104079723358,-0.3146250965806809,0,True
3.433333333333333,-0.30552583932876587,-22.47393822669983,-0.29912573436991097,0,True
3.466666666666667,-0.3302403688430786,-22.779464066028595,-0.3018328190410611,0,True
3.5,-0.20979726314544678,-23.109704434871674,-0.33494061612632325,0,True
3.533333333333333,-0.24739325046539307,-23.31950169801712,-0.39423268437584513,0,True
3.566666666666667,-0.3192985653877258,-23.566894948482513,-0.45794750022424735,0,True
3.6,-0.3653604984283447,-23.88619351387024,-0.49299410904872293,0,True
3.6333333333333333,-0.3691002130508423,-24.251554012298584,-0.4692120265434157,0,True
3.6666666666666665,-0.03408461809158325,-24.620654225349426,-0.37772478838313883,0,True
3.7,0.0042189359664917,-24.65473884344101,-0.24306572919305935,0,True
3.7333333333333334,-0.18304717540740964,-24.650519907474518,-0.11762220186875239,0,True
3.7666666666666666,-0.23860323429107663,-24.833567082881927,-0.056179793353911794,0,True
3.8,-0.28587889671325684,-25.072170317173004,-0.08279528178465653,0,True
3.8333333333333335,-0.45418143272399897,-25.35804921388626,-0.1698916493519103,0,True
3.8666666666666667,-0.3125104904174804,-25.81223064661026,-0.24425717107813238,0,True
3.9,-0.2781166434288025,-26.12474113702774,-0.22042148585016705,0,True
3.933333333333333,0.04046541452407837,-26.402857780456543,-0.04627233599463287,0,True
3.966666666666667,0.5018919706344604,-26.362392365932465,0.26356890399747795,0,True
4.0,-0.26570630073547363,-25.860500395298004,0.6273720590605392,0,True
4.033333333333333,-0.16375988721847537,-26.126206696033478,0.9315509115300709,0,True
4.066666666666666,-0.31840074062347407,-26.289966583251953,1.0820791727392225,0,True
4.1,-0.3891490697860718,-26.608367323875427,1.044021917348404,0,True
4.133333333333334,-0.34410858154296875,-26.9975163936615,0.851636349405044,0,True
4.166666666666667,-0.36481338739395136,-27.341624975204468,0.58897808099352,0,True
4.2,-0.3458174467086792,-27.70643836259842,0.3528733041974351,0,True
4.233333333333333,-0.14722704887390134,-28.0522558093071,0.21408626406800707,0,True
4.266666666666667,-0.22504305839538571,-28.199482858181,0.19092533006226983,0,True
4.3,-0.010255217552185059,-28.424525916576385,0.24440148171906909,0,True
4.333333333333333,-0.3224193453788758,-28.43478113412857,0.29644598630661384,0,True
4.366666666666666,-0.2952562570571899,-28.757200479507446,0.26420218008367446,0,True
4.4,-0.2568684816360474,-29.052456736564636,0.09727274367795102,0,True
4.433333333333334,-0.2947744131088257,-29.309325218200684,-0.19594933443376794,0,True
4.466666666666667,-0.31816983222961426,-29.60409963130951,-0.5427571889510376,0,True
4.5,-0.44321131706237793,-29.922269463539124,-0.8259614309648554,0,True
4.533333333333333,-0.3904372453689575,-30.3654807806015,-0.9272938846817639,0,True
4.566666666666666,0.42211848497390747,-30.75591802597046,-0.7823966945369416,0,True
4.6,0.18180072307586667,-30.33379954099655,-0.42334928714406467,0,True
4.633333333333334,0.5960328578948975,-30.151998817920685,0.017999067776449867,0,True
4.666666666666667,-0.4163776636123657,-29.555965960025787,0.3561073052242235,0,True
4.7,-0.44587850570678705,-29.972343623638153,0.42887881122631355,0,True
4.733333333333333,-0.31881529092788696,-30.41822212934494,0.16851892399233537,0,True
4.766666666666667,-0.2759108543395996,-30.737037420272827,-0.36569013396904926,0,True
4.8,-0.28882360458374023,-31.012948274612427,-1.002131771818063,0,True
4.833333333333333,-0.3230487108230591,-31.301771879196167,-1.5100467434045222,0,True
4.866666666666666,-0.32590991258621216,-31.624820590019226,-1.6758523813371997,0,True
4.9,0.28919154405593867,-31.95073050260544,-1.3836464404927509,0,True
4.933333333333334,1.1867456436157229,-31.6615389585495,-0.6723160662932153,0,True
4.966666666666667,1.2087796926498413,-30.474793314933777,0.26290915594733866,0,True
5.0,-0.2919701933860779,-29.266013622283936,1.1392379722915624,0,True
5.033333333333333,-0.17440176010131836,-29.557983815670013,1.6996951247884722,0,True
5.066666666666666,-0.2475656270980835,-29.732385575771332,1.812907073572397,0,True
5.1,-0.27187466621398926,-29.979951202869415,1.5102634992863895,0,True
5.133333333333334,-0.30672013759613037,-30.251825869083405,0.9530121525985724,0,True
5.166666666666667,-0.2961280345916748,-30.558546006679535,0.35655111099666986,0,True
5.2,-0.19465410709381104,-30.85467404127121,-0.0923156897674505,0,True
5.233333333333333,0.05996778607368469,-31.04932814836502,-0.2971037199771522,0,True
5.266666666666667,0.05373954772949219,-30.989360362291336,-0.27549042237745236,0,True
5.3,0.19333264231681827,-30.935620814561844,-0.1400832994792317,0,True
5.333333333333333,-0.06385171413421631,-30.742288172245026,-0.04389366858399508,0,True
5.366666666666666,-0.2679837942123413,-30.806139886379242,-0.11079523656213122,0,True
5.4,-0.23911714553833005,-31.074123680591583,-0.3782198689447573,0,True
5.433333333333334,-0.369022011756897,-31.313240826129913,-0.7759483654056599,0,True
5.466666666666667,-0.32998180389404297,-31.68226283788681,-1.1511108439697826,0,True
5.5,-0.252181589603424,-32.01224464178085,-1.3312528489443907,0,True
5.533333333333333,0.3399521112442017,-32.26442623138428,-1.2011759054862798,0,True
5.566666666666666,0.44358241558074946,-31.924474120140076,-0.7600887648313052,0,True
5.6,0.5201032757759094,-31.480891704559326,-0.12951790095490007,0,True
5.633333333333334,0.35162350535392756,-30.960788428783417,0.49657738942848406,0,True
5.666666666666667,-0.428975760936737,-30.60916492342949,0.9375467807237473,0,True
5.7,-0.4229235649108887,-31.038140684366226,1.1039269023831257,0,True
5.733333333333333,-0.4681081771850586,-31.461064249277115,1.026519084525778,0,True
5.766666666666667,-0.31156229972839355,-31.929172426462173,0.8238818699288273,0,True
5.8,-0.14163553714752197,-32.24073472619057,0.6310610025742014,0,True
5.833333333333333,-0.047809720039367676,-32.38237026333809,0.5316183484341959,0,True
5.866666666666666,0.03597325086593628,-32.43017998337746,0.5279986335062099,0,True
5.9,-0.38262510299682617,-32.39420673251152,0.5600711704129581,0,True
5.933333333333334,-0.4729211330413819,-32.77683183550835,0.5541447131677629,0,True
5.966666666666667,-0.5704853534698486,-33.24975296854973,0.4700356948347259,0,True
6.0,-0.26779854297637945,-33.82023832201958,0.3199085306817769,0,True
6.033333333333333,-0.3499650359153748,-34.088036864995956,0.1539409496752038,0,True
6.066666666666666,-0.2694163918495178,-34.43800190091133,0.027838149658389367,0,True
6.1,-0.39139974117279047,-34.70741829276085,-0.02697022702798306,0,True
6.133333333333334,0.017651379108428955,-35.09881803393364,-0.016619810791266863,0,True
6.166666666666667,-0.3947857618331909,-35.08116665482521,0.021678265881929244,0,True
6.2,-0.3642350435256958,-35.4759524166584,0.04031731159414425,0,True
6.233333333333333,-0.44717156887054443,-35.8401874601841,0.004419978417401652,0,True
6.266666666666667,-0.3557617664337159,-36.28735902905464,-0.09473614798405383,0,True
6.3,-0.41369962692260737,-36.64312079548836,-0.24097710100052303,0,True
6.333333333333333,-0.3268170356750488,-37.056820422410965,-0.40495285983482754,0,True
6.366666666666666,-0.3221402764320373,-37.383637458086014,-0.557868331713573,0,True
6.4,-0.3666497468948364,-37.70577773451805,-0.6804931574824425,0,True
6.433333333333334,-0.314677894115448,-38.07242748141289,-0.7651886320098613,0,True
6.466666666666667,-0.2690095901489258,-38.387105375528336,-0.8126067630693816,0,True
6.5,-0.23316198587417605,-38.65611496567726,-0.826139833092099,0,True
6.533333333333333,-0.1514378786087036,-38.88927695155144,-0.8066019386941109,0,True
6.566666666666666,-0.19149291515350342,-39.04071483016014,-0.74898801533932,0,True
6.6,-0.2857414484024048,-39.232207745313644,-0.6432379991826036,0,True
6.633333333333334,-0.13262665271759033,-39.51794919371605,-0.48037297575071425,0,True
6.666666666666667,0.11484527587890626,-39.65057584643364,-0.26236605936839225,0,True
6.7,-0.08248174190521242,-39.53573057055473,-0.009813745075965549,0,True
6.733333333333333,-0.1263223886489868,-39.618212312459946,0.23901752291487263,0,True
6.766666666666667,-0.18949085474014282,-39.74453470110893,0.43847102000056337,0,True
6.8,-0.21400660276412967,-39.934025555849075,0.5494780020017652,0,True
6.833333333333333,-0.3328385949134826,-40.148032158613205,0.5509164440626536,0,True
6.866666666666666,-0.2785658836364746,-40.48087075352669,0.445634421884257,0,True
6.9,-0.16487538814544678,-40.75943663716316,0.26153616867955193,0,True
6.933333333333334,-0.4206806421279908,-40.92431202530861,0.048672475391998794,0,True
6.966666666666667,-0.35368478298187256,-41.3449926674366,-0.12850130587507497,0,True
7.0,-0.21113181114196775,-41.69867745041847,-0.20609645484573777,0,True
7.033333333333333,-0.2683942317962647,-41.90980926156044,-0.14251079451573626,0,True
7.066666666666666,0.13881680369377136,-42.178203493356705,0.06066906132444114,0,True
7.1,0.09304147958755492,-42.03938668966293,0.3509047043054369,0,True
7.133333333333334,-0.11998641490936279,-41.94634521007538,0.6388636484318726,0,True
7.166666666666667,-0.3279812932014465,-42.06633162498474,0.8315446485541975,0,True
7.2,-0.3850134611129761,-42.39431291818619,0.8688757548574527,0,True
7.233333333333333,-0.44650518894195557,-42.779326379299164,0.7452983286313865,0,True
7.266666666666667,-0.4633569717407226,-43.22583156824112,0.5070409881922214,0,True
7.3,-0.44012928009033203,-43.68918853998184,0.22910020396907843,0,True
7.333333333333333,-0.28436487913131714,-44.129317820072174,-0.015503460560156978,0,True
7.366666666666666,-0.3616259694099426,-44.41368269920349,-0.18049335502310204,0,True
7.4,-0.3422662019729614,-44.775308668613434,-0.25627064731093757,0,True
7.433333333333334,-0.21844810247421265,-45.117574870586395,-0.2639026601507887,0,True
7.466666666666667,-0.2241208553314209,-45.33602297306061,-0.23853149544873853,0,True
7.5,-0.38022470474243164,-45.56014382839203,-0.21041997329241385,0,True
7.533333333333333,-0.42225849628448486,-45.94036853313446,-0.19202009001502332,0,True
7.566666666666666,-0.39262139797210693,-46.362627029418945,-0.17713027437073606,0,True
7.6,-0.1936719417572021,-46.75524842739105,-0.1518515545536124,0,True
7.633333333333334,-0.10042667388916016,-46.948920369148254,-0.10894344621095059,0,True
7.666666666666667,-0.30374509096145635,-47.049347043037415,-0.05442692770848131,0,True
7.7,-0.3824059963226318,-47.35309213399887,-0.0019133575129942004,0,True
7.733333333333333,-0.3366148471832275,-47.7354981303215,0.03930427142950638,0,True
7.766666666666667,-0.2557114362716674,-48.07211297750473,0.0720158080367033,0,True
7.8,-0.250750184059143,-48.3278244137764,0.10938148357657146,0,True
7.833333333333333,-0.19252747297286987,-48.57857459783554,0.16614587404043857,0,True
7.866666666666666,-0.3248592615127563,-48.77110207080841,0.24852742348247125,0,True
7.9,-0.0685415267944336,-49.09596133232117,0.34730206891417886,0,True
7.933333333333334,-0.3793641924858094,-49.1645028591156,0.43636710205909196,0,True
7.966666666666667,-0.19348919391632077,-49.54386705160141,0.47751344992017664,0,True
8.0,-0.3698151111602783,-49.73735624551773,0.4306594210796941,0,True
8.033333333333333,-0.4233216047286988,-50.10717135667801,0.26730585657197176,0,True
8.066666666666666,-0.3683973550796509,-50.53049296140671,-0.016060584471168714,0,True
8.1,-0.42968082427978516,-50.89889031648636,-0.38846881025557817,0,True
8.133333333333333,-0.3077422380447387,-51.328571140766144,-0.7827974694145632,0,True
8.166666666666666,-0.18841272592544556,-51.63631337881088,-1.105285460738374,0,True
8.2,-0.35792267322540283,-51.82472610473633,-1.2579917667993656,0,True
8.233333333333333,-0.20424771308898926,-52.18264877796173,-1.172392782430835,0,True
8.266666666666667,0.0013987421989440918,-52.38689649105072,-0.8454468559162236,0,True
8.3,1.1150884628295898,-52.385497748851776,-0.3603742913476896,0,True
8.333333333333334,-0.11262786388397217,-51.270409286022186,0.12860341648786167,0,True
8.366666666666667,-0.2175190448760986,-51.38303714990616,0.4531205135195968,0,True
8.4,-0.27412068843841547,-51.60055619478226,0.5052353847622503,0,True
8.433333333333334,-0.35286593437194824,-51.87467688322067,0.2888935578663022,0,True
8.466666666666667,-0.3526111841201783,-52.22754281759262,-0.07933451321448268,0,True
8.5,-0.22661054134368896,-52.5801540017128,-0.41915066395669653,0,True
8.533333333333333,-0.03831362724304199,-52.80676454305649,-0.5621375476951487,0,True
8.566666666666666,0.16371345520019528,-52.84507817029953,-0.4223554642374283,0,True
8.6,0.8608566522598267,-52.681364715099335,-0.03245592587506269,0,True
8.633333333333333,-0.0450986623764038,-51.82050806283951,0.4710346094709299,0,True
8.666666666666666,-0.06780600547790526,-51.86560672521591,0.906908118932267,0,True
8.7,-0.13436281681060794,-51.93341273069382,1.1239913985821393,0,True
8.733333333333333,-0.29580140113830566,-52.067775547504425,1.0563682214915424,0,True
8.766666666666667,-0.32077598571777344,-52.36357694864273,0.7392463790657472,0,True
8.8,-0.29793834686279297,-52.684352934360504,0.2869832479311626,0,True
8.833333333333334,-0.35062623023986816,-52.9822912812233,-0.15237003748864533,0,True
8.866666666666667,-0.2583363056182861,-53.332917511463165,-0.4483152108325796,0,True
8.9,0.2523614168167114,-53.59125381708145,-0.528692149610698,0,True
8.933333333333334,0.1565704941749573,-53.33889240026474,-0.3974559192129116,0,True
8.966666666666667,-0.1882263422012329,-53.18232190608978,-0.1241949544493063,0,True
9.0,0.18379828333854675,-53.370548248291016,0.1881272896895326,0,True
9.033333333333333,-0.10328567028045654,-53.18674996495247,0.4413192261681979,0,True
9.066666666666666,-0.2350456714630127,-53.290035635232925,0.570817761268147,0,True
9.1,-0.2894956469535827,-53.52508130669594,0.5577570893966652,0,True
9.133333333333333,-0.18695276975631714,-53.81457695364952,0.4241483889489129,0,True
9.166666666666666,-0.3509515523910522,-54.00152972340584,0.21677078634257188,0,True
9.2,-0.2698535323143005,-54.35248127579689,-0.01147731612139304,0,True
9.233333333333333,-0.32179176807403564,-54.62233480811119,-0.2157784516458686,0,True
9.266666666666667,-0.3379520773887634,-54.944126576185226,-0.3668847016041167,0,True
9.3,-0.11081695556640624,-55.28207865357399,-0.45295887412060315,0,True
9.333333333333334,-0.3001408576965332,-55.392895609140396,-0.47750172037530186,0,True
9.366666666666667,-0.26932716369628906,-55.69303646683693,-0.45482315198616663,0,True
9.4,-0.21967256069183347,-55.96236363053322,-0.404689390958998,0,True
9.433333333333334,-0.20931750535964966,-56.18203619122505,-0.34742413521752924,0,True
9.466666666666667,-0.09298956394195557,-56.3913536965847,-0.299108313953104,0,True
9.5,-0.35871362686157227,-56.48434326052666,-0.2660503274225319,0,True
9.533333333333333,-0.3591030836105346,-56.84305688738823,-0.24029263924378497,0,True
9.566666666666666,-0.11104321479797362,-57.202159970998764,-0.20050738860295492,0,True
9.6,-0.26378315687179565,-57.31320318579674,-0.12067091959869859,0,True
9.633333333333333,-0.3814030885696411,-57.57698634266853,0.01646153118534681,0,True
9.666666666666666,0.15527728199958804,-57.958389431238174,0.20744820205024556,0,True
9.7,-0.20405763387680056,-57.803112149238586,0.42407807735653574,0,True
9.733333333333333,-0.28324353694915766,-58.00716978311539,0.620750787596978,0,True
9.766666666666667,-0.280957281589508,-58.290413320064545,0.7509894739437645,0,True
9.8,-0.2944861054420471,-58.57137060165405,0.7847142970109469,0,True
9.833333333333334,-0.4511556625366211,-58.8658567070961,0.718128933660311,0,True
9.866666666666667,-0.37683719396591187,-59.31701236963272,0.57341216650469,0,True
9.9,-0.33090358972549433,-59.69384956359863,0.3900649462004005,0,True
9.933333333333334,-0.3785035014152527,-60.02475315332413,0.21211557704703377,0,True
9.966666666666667,-0.2436516284942627,-60.40325665473938,0.07588199198399076,0,True
10.0,-0.3498767614364624,-60.64690828323364,0.0014413323063604236,0,True
10.033333333333333,-0.15161901712417603,-60.996785044670105,-0.011343934427455305,0,True
10.066666666666666,-0.41379773616790766,-61.14840406179428,0.017450488598570055,0,True
10.1,-0.12793779373168948,-61.56220179796219,0.052247168591940216,0,True
10.133333333333333,-0.06635940074920654,-61.69013959169388,0.05118590771250555,0,True
10.166666666666666,-0.27522873878479,-61.756498992443085,-0.019626002867876934,0,True
10.2,-0.3977789878845215,-62.031727731227875,-0.17024374391899788,0,True
10.233333333333333,-0.45800149440765375,-62.429506719112396,-0.3783184520941478,0,True
10.266666666666667,-0.40288555622100825,-62.88750821352005,-0.5969282174166309,0,True
10.3,-0.37713050842285156,-63.29039376974106,-0.7785026857032621,0,True
10.333333333333334,0.12414157390594484,-63.66752427816391,-0.9016835764617889,0,True
10.366666666666667,0.002652347087860107,-63.543382704257965,-0.9822640741536417,0,True
10.4,-0.2723817229270935,-63.540730357170105,-1.0571917625984317,0,True
10.433333333333334,-0.26850461959838867,-63.8131120800972,-1.1493176340329168,0,True
10.466666666666667,-0.2446988821029663,-64.08161669969559,-1.236629854634314,0,True
10.5,-0.08661800622940063,-64.32631558179855,-1.2488184693423032,0,True
10.533333333333333,0.041753172874450684,-64.41293358802795,-1.0967992466135652,0,True
10.566666666666666,0.19082263112068176,-64.3711804151535,-0.7211153134945998,0,True
10.6,0.14920282363891602,-64.18035778403282,-0.13453974489332549,0,True
10.633333333333333,1.2381386756896973,-64.0311549603939,0.5645634019653102,0,True
10.666666666666666,-0.20939910411834717,-62.79301628470421,1.2198510321233427,0,True
10.7,-0.21865892410278318,-63.002415388822556,1.6764417723301932,0,True
10.733333333333333,-0.43202936649322504,-63.22107431292534,1.841499355673689,0,True
10.766666666666667,-0.3358330726623535,-63.653103679418564,1.7125301975556033,0,True
10.8,-0.22615975141525269,-63.98893675208092,1.363218980154428,0,True
10.833333333333334,-0.30670732259750366,-64.21509650349617,0.9044044472670334,0,True
10.866666666666667,-0.32085633277893066,-64.52180382609367,0.4461570947467363,0,True
10.9,-0.2626181244850158,-64.8426601588726,0.07570468747227174,0,True
10.933333333333334,-0.32506477832794195,-65.10527828335762,-0.14962848443209026,0,True
10.966666666666667,-0.05398869514465332,-65.43034306168556,-0.20310677054154835,0,True
11.0,0.06841892004013062,-65.48433175683022,-0.08944133005721831,0,True
11.033333333333333,-0.081387996673584,-65.41591283679008,0.15428045113343922,0,True
11.066666666666666,0.19930210709571838,-65.49730083346367,0.46198610098038456,0,True
11.1,-0.10446369647979736,-65.29799872636795,0.7498361773585416,0,True
11.133333333333333,0.009136080741882324,-65.40246242284775,0.9348878459398626,0,True
11.166666666666666,-0.38041210174560547,-65.39332634210587,0.9565635605982967,0,True
11.2,-0.39633429050445557,-65.77373844385147,0.7932902701961686,0,True
11.233333333333333,-0.4380410313606262,-66.17007273435593,0.4672722078910362,0,True
11.266666666666667,-0.4010356068611145,-66.60811376571655,0.03558038084281267,0,True
11.3,-0.36394417285919195,-67.00914937257767,-0.42751807618162113,0,True
11.333333333333334,-0.26663756370544434,-67.37309354543686,-0.8489573460129022,0,True
11.366666666666667,-0.2767654657363891,-67.6397311091423,-1.1703996412431579,0,True
11.4,-0.31334310770034784,-67.91649657487869,-1.3563561780546998,0,True
11.433333333333334,-0.29148900508880615,-68.22983968257904,-1.3995454954149429,0,True
11.466666666666667,0.2771203815937043,-68.52132868766785,-1.3244611086373133,0,True
11.5,-0.32990390062332153,-68.24420830607414,-1.1850173562709783,0,True
11.533333333333333,0.20626872777938846,-68.57411220669746,-1.050329978881821,0,True
11.566666666666666,-0.29858416318893427,-68.36784347891808,-0.9787031261341471,0,True
11.6,0.03689688444137573,-68.66642764210701,-0.9889901807441327,0,True
11.633333333333333,-0.30073523521423334,-68.62953075766563,-1.0432147811691233,0,True
11.666666666666666,-0.1881152987480163,-68.93026599287987,-1.0523882962752087,0,True
11.7,-0.0558038353919983,-69.11838129162788,-0.9092942436937987,0,True
11.733333333333333,0.20094001293182373,-69.17418512701988,-0.5389260544747086,0,True
11.766666666666667,0.2656075954437256,-68.97324511408806,0.05551035273793725,0,True
11.8,0.9801387786865234,-68.70763751864433,0.7768496666375629,0,True
11.833333333333334,0.11067458987236023,-67.72749873995781,1.463040752837355,0,True
11.866666666666667,-0.40133237838745117,-67.61682415008545,1.9514704339610538,0,True
11.9,-0.46309757232666016,-68.0181565284729,2.144864591580725,0,True
11.933333333333334,-0.4013299345970155,-68.48125410079956,2.041550126157637,0,True
11.966666666666667,-0.19890624284744263,-68.88258403539658,1.7174908155229778,0,True
12.0,-0.4420568346977234,-69.08149027824402,1.279535007148722,0,True
12.033333333333333,-0.33029907941818243,-69.52354711294174,0.8214720506770938,0,True
12.066666666666666,-0.3574252724647522,-69.85384619235992,0.40302331504037353,0,True
12.1,-0.3326255083084106,-70.21127146482468,0.05291433315439707,0,True
12.133333333333333,-0.35191965103149414,-70.54389697313309,-0.21539724567852306,0,True
12.166666666666666,-0.21892678737640378,-70.89581662416458,-0.38979259422206175,0,True
12.2,-0.3246620297431946,-71.11474341154099,-0.4573315566125364,0,True
12.233333333333333,-0.34024256467819214,-71.43940544128418,-0.4149356575915554,0,True
12.266666666666667,0.5292325615882875,-71.77964800596237,-0.2845816971276321,0,True
12.3,-0.22637927532196042,-71.25041544437408,-0.11920361287199258,0,True
12.333333333333334,-0.2879000902175903,-71.47679471969604,0.010357732841549805,0,True
12.366666666666667,-0.28754293918609614,-71.76469480991364,0.042674207235004924,0,True
12.4,-0.29021394252777094,-72.05223774909973,-0.049158311416846914,0,True
12.433333333333334,-0.3244171142578125,-72.3424516916275,-0.2480889521699131,0,True
12.466666666666667,-0.33392179012298584,-72.66686880588531,-0.5012011340916896,0,True
12.5,-0.3654021620750427,-73.0007905960083,-0.739586330085864,0,True
12.533333333333333,-0.28771424293518066,-73.36619275808334,-0.9025169731687069,0,True
12.566666666666666,-0.07774853706359863,-73.65390700101852,-0.9580778373457576,0,True
12.6,0.14932125806808472,-73.73165553808212,-0.91232985007239,0,True
12.633333333333333,-0.27968382835388184,-73.58233428001404,-0.8020719989174396,0,True
12.666666666666666,-0.27028620243072515,-73.86201810836792,-0.6743014690981016,0,True
12.7,0.03484547138214111,-74.13230431079865,-0.563681613910485,0,True
12.733333333333333,-0.0543707013130188,-74.0974588394165,-0.47912382492776134,0,True
12.766666666666667,-0.20907962322235107,-74.15182954072952,-0.4026413263442336,0,True
12.8,0.062042057514190674,-74.36090916395187,-0.29786983991869087,0,True
12.833333333333334,-0.15615093708038327,-74.29886710643768,-0.12527322962298454,0,True
12.866666666666667,0.19156095385551453,-74.45501804351807,0.1395646618671481,0,True
12.9,0.23218786716461182,-74.26345708966255,0.4907769577770368,0,True
12.933333333333334,-0.23261749744415283,-74.03126922249794,0.887081246344572,0,True
12.966666666666667,0.4908260703086853,-74.2638867199421,1.260075600928982,0,True
13.0,-0.17665857076644897,-73.77306064963341,1.5340319451295357,0,True
13.033333333333333,-0.06474697589874269,-73.94971922039986,1.6511506213562865,0,True
13.066666666666666,-0.24900478124618527,-74.0144661962986,1.593091348867703,0,True
13.1,-0.23843789100646973,-74.26347097754478,1.3885318039085017,0,True
13.133333333333333,-0.45538210868835455,-74.50190886855125,1.101315123917808,0,True
13.166666666666666,0.05897355079650878,-74.95729097723961,0.8031148539936984,0,True
13.2,-0.2323276400566101,-74.8983174264431,0.5427400607160972,0,True
13.233333333333333,-0.06863695383071898,-75.13064506649971,0.3266511745289622,0,True
13.266666666666667,-0.29365330934524536,-75.19928202033043,0.11981493610536871,0,True
13.3,-0.27404582500457764,-75.49293532967567,-0.1339437551831697,0,True
13.333333333333334,0.18171483278274536,-75.76698115468025,-0.48013945107709566,0,True
13.366666666666667,-0.11716806888580321,-75.5852663218975,-0.9205943224360256,0,True
13.4,-0.37823164463043213,-75.70243439078331,-1.3912714921718266,0,True
13.433333333333334,-0.4409106969833374,-76.08066603541374,-1.766430141236845,0,True
13.466666666666667,0.1290873289108276,-76.52157673239708,-1.9002948525472414,0,True
13.5,0.5278000235557556,-76.39248940348625,-1.6970551612037474,0,True
13.533333333333333,0.9079279899597168,-75.8646893799305,-1.1747674304330191,0,True
13.566666666666666,0.5815149545669556,-74.95676138997078,-0.48290031961097685,0,True
13.6,0.16480332612991333,-74.37524643540382,0.14349136237749036,0,True
13.633333333333333,-0.10870480537414551,-74.21044310927391,0.47405365256147963,0,True
13.666666666666666,0.08532229065895079,-74.31914791464806,0.3765948036005403,0,True
13.7,-0.23881828784942627,-74.2338256239891,-0.12446131484547487,0,True
13.733333333333333,-0.3025408983230591,-74.47264391183853,-0.8445589699932305,0,True
13.766666666666667,-0.2775437831878662,-74.77518481016159,-1.4929086022295857,0,True
13.8,-0.03777283430099487,-75.05272859334946,-1.77207209444367,0,True
13.833333333333334,0.4186907112598419,-75.09050142765045,-1.494625247034636,0,True
13.866666666666667,1.5606768131256104,-74.67181071639061,-0.6717138403619844,0,True
13.9,1.4934587478637693,-73.111133903265,0.47350161020381726,0,True
13.933333333333334,0.43967127799987804,-71.61767515540123,1.5876026513115389,0,True
13.966666666666667,-0.2528684139251709,-71.17800387740135,2.332511578510661,0,True
14.0,-0.4497452974319458,-71.43087229132652,2.520913913074409,0,True
14.033333333333333,-0.4303889870643616,-71.88061758875847,2.172188895885951,0,True
14.066666666666666,-0.27788960933685297,-72.31100657582283,1.4708976606335273,0,True
14.1,-0.2299147844314575,-72.58889618515968,0.6658534654688198,0,True
14.133333333333333,0.2462390065193176,-72.81881096959114,-0.029744706967036055,0,True
14.166666666666666,0.07538115978240967,-72.57257196307182,-0.49227241366145313,0,True
14.2,0.0018625855445861814,-72.49719080328941,-0.6862554752766863,0,True
14.233333333333333,-0.262408971786499,-72.49532821774483,-0.6309983427639049,0,True
14.266666666666667,-0.06372880935668945,-72.75773718953133,-0.3710654375794513,0,True
14.3,0.775622308254242,-72.82146599888802,0.02886432228755267,0,True
14.333333333333334,0.2690818309783935,-72.04584369063377,0.4742650688563669,0,True
14.366666666666667,0.1980065405368805,-71.77676185965538,0.8431332656711561,0,True
14.4,0.2460864186286926,-71.5787553191185,1.01664794655774,0,True
14.433333333333334,-0.26767027378082275,-71.33266890048981,0.9282956591663781,0,True
14.466666666666667,-0.5059432983398439,-71.60033917427063,0.6039701707739387,0,True
14.5,-0.283031702041626,-72.10628247261047,0.1658323527596137,0,True
14.533333333333333,-0.16079795360565188,-72.3893141746521,-0.21089585554040288,0,True
14.566666666666666,-0.1605974435806274,-72.55011212825775,-0.3736392063284833,0,True
14.6,0.3124381601810455,-72.71070957183838,-0.26598781604435445,0,True
14.633333333333333,0.9844833612442015,-72.39827141165733,0.038718960498889184,0,True
14.666666666666666,-0.02073419094085693,-71.41378805041313,0.3659355707855846,0,True
14.7,-0.2553834915161133,-71.43452224135399,0.522238242127439,0,True
14.733333333333333,-0.341659665107727,-71.6899057328701,0.39060456600122856,0,True
14.766666666666667,-0.244417667388916,-72.03156539797783,-0.01200427301083179,0,True
14.8,-0.20957118272781372,-72.27598306536674,-0.5422876763787969,0,True
14.833333333333334,-0.09449446201324463,-72.48555424809456,-0.9953103509909297,0,True
14.866666666666667,0.05467548966407775,-72.5800487101078,-1.194778896377269,0,True
14.9,0.27056342363357544,-72.52537322044373,-1.0716576719963593,0,True
14.933333333333334,0.7250353097915649,-72.25480979681015,-0.6995150592727704,0,True
14.966666666666667,0.840037226676941,-71.52977448701859,-0.2688734324885771,0,True
15.0,-0.3518544435501099,-70.68973726034164,-0.005964878981288806,0,True
15.033333333333333,-0.3267237544059754,-71.04159170389175,-0.06965839297087205,0,True
15.066666666666666,-0.19434803724288938,-71.36831545829773,-0.4765673824714405,0,True
15.1,-0.12282943725585936,-71.56266349554062,-1.0905263236889482,0,True
15.133333333333333,0.1596091389656067,-71.68549293279648,-1.676855470322915,0,True
15.166666666666666,-0.17209434509277344,-71.52588379383087,-1.993079565634793,0,True
15.2,0.44763138890266413,-71.69797813892365,-1.8806044763775047,0,True
15.233333333333333,1.2440004348754883,-71.25034675002098,-1.326746981418593,0,True
15.266666666666667,0.8277999162673951,-70.00634631514549,-0.473865729190985,0,True
15.3,0.6226568222045898,-69.1785463988781,0.4324324815315481,0,True
15.333333333333334,0.0048929452896118155,-68.55588957667351,1.1368837948757555,0,True
15.366666666666667,0.3646804988384247,-68.5509966313839,1.4681705560051068,0,True
15.4,-0.18782782554626465,-68.18631613254547,1.3930000523890649,0,True
15.433333333333334,-0.31557726860046387,-68.37414395809174,1.0144867049093944,0,True
15.466666666666667,-0.1549685001373291,-68.6897212266922,0.5228554186621632,0,True
15.5,0.3764255046844483,-68.84468972682953,0.12126368000319818,0,True
15.533333333333333,0.11874350905418396,-68.46826422214508,-0.044099562114271136,0,True
15.566666666666666,0.061573684215545654,-68.3495207130909,0.07522408956033555,0,True
15.6,0.6496818661689758,-68.28794702887535,0.42764830466583564,0,True
15.633333333333333,0.3010487258434295,-67.63826516270638,0.8911162753595687,0,True
15.666666666666666,0.23362773656845098,-67.33721643686295,1.320736317614864,0,True
15.7,-0.14998245239257815,-67.1035887002945,1.5979295227520276,0,True
15.733333333333333,-0.06014567613601684,-67.25357115268707,1.663717578934296,0,True
15.766666666666667,-0.33663952350616455,-67.31371682882309,1.5252612835700485,0,True
15.8,-0.04347813129425049,-67.65035635232925,1.2382268684043352,0,True
15.833333333333334,-0.19202035665512082,-67.6938344836235,0.8785514335237233,0,True
15.866666666666667,-0.2892608642578125,-67.88585484027863,0.5182791316175305,0,True
15.9,-0.19691765308380127,-68.17511570453644,0.21218499193786763,0,True
15.933333333333334,-0.3160514831542969,-68.37203335762024,-0.007600526598439834,0,True
15.966666666666667,-0.38754916191101074,-68.68808484077454,-0.13495496531927215,0,True
16.0,0.21446311473846436,-69.07563400268555,-0.19273868649764425,0,True
16.033333333333335,-0.16184306144714355,-68.86117088794708,-0.23028752491790005,0,True
16.066666666666666,-0.24674344062805176,-69.02301394939423,-0.30887693512944725,0,True
16.1,-0.3513370752334595,-69.26975739002228,-0.4764974857123125,0,True
16.133333333333333,-0.35295748710632324,-69.62109446525574,-0.7437333332277392,0,True
16.166666666666668,-0.3909037113189697,-69.97405195236206,-1.0742114492434713,0,True
16.2,-0.3099099993705749,-70.36495566368103,-1.3950450901976659,0,True
16.233333333333334,-0.195125937461853,-70.6748656630516,-1.6228122845226014,0,True
16.266666666666666,-0.04323363304138183,-70.86999160051346,-1.6942520886629755,0,True
16.3,0.0881812572479248,-70.91322523355484,-1.589293943367912,0,True
16.333333333333332,-0.07325637340545656,-70.82504397630692,-1.3374950813736264,0,True
16.366666666666667,0.024029672145843502,-70.89830034971237,-1.0060801907380397,0,True
16.4,0.2283379435539246,-70.87427067756653,-0.6746249459738234,0,True
16.433333333333334,0.19003957509994507,-70.6459327340126,-0.404661713573835,0,True
16.466666666666665,-0.10910660028457642,-70.45589315891266,-0.21378985543891346,0,True
16.5,-0.39477360248565674,-70.56499975919724,-0.06623619555420894,0,True
16.533333333333335,-0.09475058317184448,-70.95977336168289,0.10926988318096004,0,True
16.566666666666666,0.20257425308227542,-71.05452394485474,0.37602785407476713,0,True
16.6,0.42406958341598505,-70.85194969177246,0.7420072016015371,0,True
16.633333333333333,0.5011590123176576,-70.42788010835648,1.139487454266302,0,True
16.666666666666668,-0.34897077083587646,-69.92672109603882,1.4482235840047322,0,True
16.7,-0.4543368220329284,-70.2756918668747,1.5494776778764177,0,True
16.733333333333334,-0.44749593734741205,-70.73002868890762,1.378085056122654,0,True
16.766666666666666,-0.3844015598297119,-71.17752462625504,0.9454802081841502,0,True
16.8,-0.43987530469894404,-71.56192618608475,0.3306475275717821,0,True
16.833333333333332,-0.2661712169647217,-72.00180149078369,-0.3454175785966296,0,True
16.866666666666667,-0.27774637937545776,-72.26797270774841,-0.9457861539014778,0,True
16.9,-0.26171696186065674,-72.54571908712387,-1.339212695852177,0,True
16.933333333333334,-0.09420907497406006,-72.80743604898453,-1.421784266082756,0,True
16.966666666666665,0.0412534475326538,-72.90164512395859,-1.1433412668390717,0,True
17.0,0.4449892044067383,-72.86039167642593,-0.5339606750370166,0,True
17.033333333333335,0.9352737665176393,-72.4154024720192,0.2857156575178118,0,True
17.066666666666666,0.5637915134429932,-71.48012870550156,1.1279572612631723,0,True
17.1,-0.20018154382705688,-70.91633719205856,1.7967021546541269,0,True
17.133333333333333,-0.2921566963195801,-71.11651873588562,2.1569287125209207,0,True
17.166666666666668,-0.4098776578903198,-71.4086754322052,2.1767521868711497,0,True
17.2,-0.269894003868103,-71.81855309009552,1.9199180315372137,0,True
17.233333333333334,-0.2635599970817566,-72.08844709396362,1.498280312643516,0,True
17.266666666666666,-0.4260959625244141,-72.35200709104538,1.0150075298804968,0,True
17.3,-0.3238287568092346,-72.7781030535698,0.5273023993876808,0,True
17.333333333333332,-0.40329432487487793,-73.10193181037903,0.04087829205060041,0,True
17.366666666666667,-0.5223000049591064,-73.5052261352539,-0.4685098223570888,0,True
17.4,-0.4625836610794067,-74.02752614021301,-1.0211279876627621,0,True
17.433333333333334,-0.4231953024864197,-74.49010980129242,-1.6037259512120514,0,True
17.466666666666665,-0.3718124032020569,-74.91330510377884,-2.1569448219965586,0,True
17.5,-0.26303690671920776,-75.2851175069809,-2.584562223828025,0,True
17.533333333333335,-0.2944501042366028,-75.5481544137001,-2.7819553213649906,0,True
17.566666666666666,0.2707612216472625,-75.8426045179367,-2.674702648932378,0,True
17.6,0.5606915950775145,-75.57184329628944,-2.252610764012588,0,True
17.633333333333333,0.2502259910106659,-75.01115170121193,-1.5830208272404565,0,True
17.666666666666668,0.12299707531929015,-74.76092571020126,-0.7953380776504978,0,True
17.7,0.43895876407623297,-74.63792863488197,-0.04329229312599852,0,True
17.733333333333334,0.26927679777145386,-74.19896987080574,0.5397703437764028,0,True
17.766666666666666,-0.1599615216255188,-73.92969307303429,0.8786416053840018,0,True
17.8,-0.4249974489212036,-74.0896545946598,0.9761119208707878,0,True
17.833333333333332,-0.32343024015426636,-74.51465204358101,0.9057827115506504,0,True
17.866666666666667,0.05538567900657653,-74.83808228373528,0.7774431207697408,0,True
17.9,-0.2627995014190674,-74.7826966047287,0.6902689424133657,0,True
17.933333333333334,-0.0076888203620910645,-75.04549610614777,0.6974966862410338,0,True
17.966666666666665,0.5694808959960938,-75.05318492650986,0.7987219433424165,0,True
18.0,-0.39533233642578125,-74.48370403051376,0.9595974261150441,0,True
18.033333333333335,-0.3766257166862488,-74.87903636693954,1.1432922471110816,0,True
18.066666666666666,-0.04824483394622803,-75.2556620836258,1.3307017777244592,0,True
18.1,0.15370830893516538,-75.30390691757202,1.5158291161089203,0,True
18.133333333333333,0.17668890953063965,-75.15019860863686,1.6855304059401384,0,True
18.166666666666668,-0.07768636941909789,-74.97350969910622,1.8063143768802727,0,True
18.2,-0.06952369213104248,-75.05119606852531,1.8314525655089542,0,True
18.233333333333334,-0.4207834601402283,-75.12071976065636,1.7220505615180064,0,True
18.266666666666666,-0.49751424789428716,-75.54150322079659,1.4650803681981481,0,True
18.3,-0.4673681259155273,-76.03901746869087,1.0756006704180325,0,True
18.333333333333332,-0.10131430625915526,-76.5063855946064,0.5839292463936013,0,True
18.366666666666667,-0.27226221561431885,-76.60769990086555,0.02100814621802187,0,True
18.4,-0.3085523247718811,-76.87996211647987,-0.583996086543517,0,True
18.433333333333334,-0.43999660015106207,-77.18851444125175,-1.1926843363705661,0,True
18.466666666666665,-0.34041911363601685,-77.62851104140282,-1.7466556477994057,0,True
18.5,-0.21150255203247073,-77.96893015503883,-2.1730357717911732,0,True
18.533333333333335,-0.3516365885734558,-78.1804327070713,-2.410318179958382,0,True
18.566666666666666,0.292644739151001,-78.53206929564476,-2.4417846533071557,0,True
18.6,0.8161743879318236,-78.23942455649376,-2.3130601504387056,0,True
18.633333333333333,0.7189401388168336,-77.42325016856194,-2.113331237101874,0,True
18.666666666666668,-0.2747694849967957,-76.7043100297451,-1.921271090915602,0,True
18.7,-0.14331626892089847,-76.9790795147419,-1.7483313500758075,0,True
18.733333333333334,0.06591367721557617,-77.1223957836628,-1.5254735726457476,0,True
18.766666666666666,0.30848389863967896,-77.05648210644722,-1.1530578660384172,0,True
18.8,1.1198233366012575,-76.74799820780754,-0.5848730599757431,0,True
18.833333333333332,1.1500473022460938,-75.62817487120628,0.11231530927568525,0,True
18.866666666666667,0.33803513646125793,-74.47812756896019,0.7687748926384381,0,True
18.9,-0.24462592601776123,-74.14009243249893,1.1895598543137835,0,True
18.933333333333334,-0.0739472508430481,-74.3847183585167,1.2524281346744288,0,True
18.966666666666665,-0.09070253372192383,-74.45866560935974,0.9686197303211109,0,True
19.0,-0.2320183515548706,-74.54936814308167,0.47842762064153477,0,True
19.033333333333335,-0.21730327606201175,-74.78138649463654,-0.008661718286147417,0,True
19.066666666666666,0.12348300218582152,-74.99868977069855,-0.2986013367532013,0,True
19.1,0.2729368805885315,-74.87520676851273,-0.28749412292576887,0,True
19.133333333333333,0.7323555946350098,-74.6022698879242,0.00319510235076935,0,True
19.166666666666668,0.5596447587013244,-73.86991429328918,0.4460468152064168,0,True
19.2,-0.16218358278274536,-73.31026953458786,0.8726909176804466,0,True
19.233333333333334,-0.27108162641525263,-73.4724531173706,1.1510495105350265,0,True
19.266666666666666,-0.21167004108428952,-73.74353474378586,1.234249441835375,0,True
19.3,0.13911223411560059,-73.95520478487015,1.1602727090740979,0,True
19.333333333333332,0.04908624291419983,-73.81609255075455,1.014062441055219,0,True
19.366666666666667,-0.2673932909965515,-73.76700630784035,0.8819786467894529,0,True
19.4,-0.1694563627243042,-74.0343995988369,0.8210020749019014,0,True
19.433333333333334,-0.16189485788345337,-74.2038559615612,0.8468835910815607,0,True
19.466666666666665,-0.1288313865661621,-74.36575081944466,0.9359335229712973,0,True
19.5,0.0003706216812133789,-74.49458220601082,1.036738236769038,0,True
19.533333333333335,-0.04318439960479737,-74.4942115843296,1.0906323630025163,0,True
19.566666666666666,-0.4485030174255371,-74.5373959839344,1.0567077313624362,0,True
19.6,-0.5349482297897338,-74.98589900135994,0.9308708687332736,0,True
19.633333333333333,-0.47926604747772217,-75.52084723114967,0.7467859248958515,0,True
19.666666666666668,-0.1422460675239563,-76.0001132786274,0.5556465624301665,0,True
19.7,-0.1655116081237793,-76.14235934615135,0.3968070714973086,0,True
19.733333333333334,-0.23899245262145993,-76.30787095427513,0.2782886542333282,0,True
19.766666666666666,-0.4248669147491455,-76.54686340689659,0.17762514281874742,0,True
19.8,-0.34191930294036865,-76.97173032164574,0.05795246409740779,0,True
19.833333333333332,-0.4395143985748291,-77.3136496245861,-0.11398228707633043,0,True
19.866666666666667,-0.3982083797454834,-77.75316402316093,-0.357465537669328,0,True
19.9,-0.3062918186187744,-78.15137240290642,-0.6757957831555631,0,True
19.933333333333334,-0.3285242915153504,-78.45766422152519,-1.0575159471385622,0,True
19.966666666666665,-0.36036592721939087,-78.78618851304054,-1.4762922878464206,0,True
20.0,-0.29545247554779047,-79.14655444025993,-1.8898835441701183,0,True
20.033333333333335,-0.4297864437103272,-79.44200691580772,-2.243471805677932,0,True
20.066666666666666,-0.29764115810394287,-79.87179335951805,-2.482254340608577,0,True
20.1,-0.1752803921699524,-80.169434517622,-2.5714283606226127,0,True
20.133333333333333,0.6311107873916626,-80.34471490979195,-2.512161945842846,0,True
20.166666666666668,0.6784054040908815,-79.71360412240028,-2.337695815441732,0,True
20.2,-0.02250432968139648,-79.0351987183094,-2.083598501618907,0,True
20.233333333333334,-0.07987332344055176,-79.0577030479908,-1.7497780819438025,0,True
20.266666666666666,0.18323564529418948,-79.13757637143135,-1.2886787995498135,0,True
20.3,0.5405374765396118,-78.95434072613716,-0.6405195327894321,0,True
20.333333333333332,0.8843759894371033,-78.41380324959755,0.2017788112325528,0,True
20.366666666666667,1.1885859966278076,-77.52942726016045,1.1442332966287034,0,True
20.4,0.7382014989852905,-76.34084126353264,2.000405411633607,0,True
20.433333333333334,-0.15286499261856076,-75.60263976454735,2.560956777959019,0,True
20.466666666666665,-0.20886707305908206,-75.75550475716591,2.6868303715229014,0,True
20.5,-0.43173462152481074,-75.96437183022499,2.37227915969356,0,True
20.533333333333335,-0.3826391100883484,-76.3961064517498,1.7443872055008247,0,True
20.566666666666666,-0.34074735641479487,-76.77874556183815,1.0052514556118348,0,True
20.6,0.29374474287033076,-77.11949291825294,0.3525146100970488,0,True
20.633333333333333,0.5382328033447266,-76.82574817538261,-0.08085429239016279,0,True
20.666666666666668,-0.10835993289947508,-76.28751537203789,-0.2440043746779905,0,True
20.7,-0.06994354724884035,-76.39587530493736,-0.14934010584839993,0,True
20.733333333333334,0.02900254726409912,-76.4658188521862,0.15351184940748647,0,True
20.766666666666666,0.3159505724906921,-76.4368163049221,0.5866700953012457,0,True
20.8,0.8960348367691039,-76.12086573243141,1.0397590705386324,0,True
20.833333333333332,0.44074705243110657,-75.22483089566231,1.3779727988787567,0,True
20.866666666666667,-0.40819460153579706,-74.7840838432312,1.4797058486628185,0,True
20.9,-0.398681104183197,-75.192278444767,1.2899563985636449,0,True
20.933333333333334,-0.5281515121459962,-75.5909595489502,0.8531450487348887,0,True
20.966666666666665,-0.4829949140548706,-76.11911106109619,0.2985387779511196,0,True
21.0,-0.10608851909637451,-76.60210597515106,-0.21652213778028903,0,True
21.033333333333335,-0.06618160009384155,-76.70819449424744,-0.5742013096433098,0,True
21.066666666666666,0.13902330398559568,-76.77437609434128,-0.7391468463090917,0,True
21.1,-0.21191853284835813,-76.63535279035568,-0.7577813519596474,0,True
21.133333333333333,0.016369342803955078,-76.84727132320404,-0.7196480871541766,0,True
21.166666666666668,-0.19041824340820312,-76.83090198040009,-0.7050974308596999,0,True
21.2,-0.3428542017936706,-77.02132022380829,-0.7468075221809531,0,True
21.233333333333334,-0.43635112047195435,-77.36417442560196,-0.8224422116933439,0,True
21.266666666666666,-0.27582812309265137,-77.80052554607391,-0.8790467005256847,0,True
21.3,0.5216467380523682,-78.07635366916656,-0.8723606957015231,0,True
21.333333333333332,0.012956142425537108,-77.5547069311142,-0.7942595340133662,0,True
21.366666666666667,-0.2694278955459595,-77.54175078868866,-0.6696367532691893,0,True
21.4,-0.23816579580307004,-77.81117868423462,-0.528712640393245,0,True
21.433333333333334,-0.1204858422279358,-78.04934448003769,-0.3804834890118029,0,True
21.466666666666665,-0.14726936817169187,-78.16983032226562,-0.20873030645689022,0,True
21.5,0.20076876878738406,-78.31709969043732,0.00894595871513502,0,True
21.533333333333335,-0.07393670082092285,-78.11633092164993,0.27501372532357826,0,True
21.566666666666666,-0.05871379375457763,-78.19026762247086,0.5565908965045376,0,True
21.6,0.002036035060882568,-78.24898141622543,0.7896320552515808,0,True
21.633333333333333,-0.20976328849792483,-78.24694538116455,0.9008127153612976,0,True
21.666666666666668,-0.24162578582763675,-78.45670866966248,0.8379960335048809,0,True
21.7,-0.42849636077880865,-78.69833445549011,0.596654917917159,0,True
21.733333333333334,-0.5106558799743652,-79.12683081626892,0.22952226575441564,0,True
21.766666666666666,-0.4481534957885742,-79.63748669624329,-0.16801523478660554,0,True
21.8,-0.2888479828834534,-80.08564019203186,-0.4936913963433422,0,True
21.833333333333332,-0.07593035697937012,-80.37448817491531,-0.6805982093718552,0,True
21.866666666666667,-0.06101667881011963,-80.45041853189468,-0.7253472678877259,0,True
21.9,-0.11519634723663329,-80.5114352107048,-0.6865766273415336,0,True
21.933333333333334,0.01091057062149048,-80.62663155794144,-0.6522877197319427,0,True
21.966666666666665,-0.01788187026977539,-80.61572098731995,-0.6897554609907018,0,True
22.0,-0.31333380937576294,-80.63360285758972,-0.8009339973510268,0,True
22.033333333333335,-0.3352261781692505,-80.94693666696548,-0.9068448860786699,0,True
22.066666666666666,-0.09815752506256104,-81.28216284513474,-0.8749594186555498,0,True
22.1,0.3629578649997711,-81.3803203701973,-0.5832955713766088,0,True
22.133333333333333,0.5602120161056519,-81.01736250519753,0.008307974984106044,0,True
22.166666666666668,0.969405710697174,-80.45715048909187,0.8190077933974778,0,True
22.2,0.39949387311935425,-79.4877447783947,1.6648959788697293,0,True
22.233333333333334,-0.09538984298706055,-79.08825090527534,2.327482642604576,0,True
22.266666666666666,-0.3394439816474914,-79.1836407482624,2.6369970670272393,0,True
22.3,-0.32737767696380615,-79.5230847299099,2.528591253593154,0,True
22.333333333333332,-0.20235490798950195,-79.8504624068737,2.0507115030304606,0,True
22.366666666666667,-0.23397642374038694,-80.0528173148632,1.3350060859528876,0,True
22.4,-0.25954198837280273,-80.28679373860359,0.5521516610593759,0,True
22.433333333333334,-0.26725029945373535,-80.5463357269764,-0.12833123546253508,0,True
22.466666666666665,0.003755509853363037,-80.81358602643013,-0.5706608551157484,0,True
22.5,-0.039201974868774414,-80.80983051657677,-0.7011031242303035,0,True
22.533333333333335,0.38174349069595337,-80.84903249144554,-0.5307024574194413,0,True
22.566666666666666,1.0025814771652222,-80.46728900074959,-0.1620614382458751,0,True
22.6,0.3687836527824402,-79.46470752358437,0.2331705062046694,0,True
22.633333333333333,0.11200836300849916,-79.09592387080193,0.4684498293033111,0,True
22.666666666666668,-0.18517917394638062,-78.98391550779343,0.4092910990127622,0,True
22.7,-0.11074030399322508,-79.16909468173981,0.021562894193955694,0,True
22.733333333333334,0.08005985617637634,-79.27983498573303,-0.6203072428209246,0,True
22.766666666666666,0.02390921115875244,-79.19977512955666,-1.3637176120479626,0,True
22.8,-0.10684835910797118,-79.1758659183979,-2.0299185106252735,0,True
22.833333333333332,-0.1286810040473938,-79.28271427750587,-2.4697378612141514,0,True
22.866666666666667,0.9626721143722534,-79.41139528155327,-2.6088880927768776,0,True
22.9,0.8628766536712645,-78.44872316718102,-2.468237216200227,0,True
22.933333333333334,0.6598423123359681,-77.58584651350975,-2.1463441038404674,0,True
22.966666666666665,0.7115285396575927,-76.92600420117378,-1.7678766005180782,0,True
23.0,-0.04814314842224121,-76.21447566151619,-1.4245948228950402,0,True
23.033333333333335,0.692257046699524,-76.26261880993843,-1.1423267335231755,0,True
23.066666666666666,0.9878689646720887,-75.5703617632389,-0.8887866110590411,0,True
23.1,0.6560240983963012,-74.58249279856682,-0.6089018966238067,0,True
23.133333333333333,0.3673377633094787,-73.92646870017052,-0.2609650465347839,0,True
23.166666666666668,0.887329399585724,-73.55913093686104,0.16359606230785478,0,True
23.2,0.7673003673553467,-72.67180153727531,0.6387334637041605,0,True
23.233333333333334,0.928236961364746,-71.90450116991997,1.117020233012258,0,True
23.266666666666666,0.6316562294960022,-70.97626420855522,1.5523233476665468,0,True
23.3,-0.14657998085021973,-70.34460797905922,1.9200883313072121,0,True
23.333333333333332,0.45242786407470703,-70.49118795990944,2.219687156201814,0,True
23.366666666666667,0.723942756652832,-70.03876009583473,2.4542456055135045,0,True
23.4,0.4756982624530792,-69.3148173391819,2.6047752264810518,0,True
23.433333333333334,0.32236167788505554,-68.83911907672882,2.6249742574139323,0,True
23.466666666666665,-0.15253400802612305,-68.51675739884377,2.4666623163244674,0,True
23.5,-0.13055700063705442,-68.66929140686989,2.1189609208137985,0,True
23.533333333333335,-0.22436678409576416,-68.79984840750694,1.6327478336382175,0,True
23.566666666666666,-0.06024277210235595,-69.0242151916027,1.1123883370280834,0,True
23.6,-0.2363905310630798,-69.08445796370506,0.6770813354726737,0,True
23.633333333333333,0.007475137710571289,-69.32084849476814,0.41007038415529584,0,True
23.666666666666668,0.5049921274185181,-69.31337335705757,0.3197864875147863,0,True
23.7,0.168574333190918,-68.80838122963905,0.3332565051176619,0,True
23.733333333333334,-0.0136868953704834,-68.63980689644814,0.3284193296211823,0,True
23.766666666666666,-0.37730717658996576,-68.65349379181862,0.19078965550632462,0,True
23.8,-0.4004667401313781,-69.03080096840858,-0.13559371961979685,0,True
23.833333333333332,-0.3552073836326599,-69.43126770853996,-0.6289843411378321,0,True
23.866666666666667,-0.30359947681427,-69.78647509217262,-1.207883655429317,0,True
23.9,-0.36330199241638184,-70.09007456898689,-1.770754672974894,0,True
23.933333333333334,-0.15034246444702148,-70.45337656140327,-2.234285780867556,0,True
23.966666666666665,0.47752806544303894,-70.6037190258503,-2.552515203842284,0,True
24.0,-0.3682142496109008,-70.12619096040726,-2.7117111592941834,0,True
24.033333333333335,-0.2579420804977417,-70.49440521001816,-2.7109423757642994,0,True
24.066666666666666,-0.025219023227691647,-70.7523472905159,-2.5486177788361526,0,True
24.1,0.27878415584564203,-70.77756631374359,-2.228887481870982,0,True
24.133333333333333,0.8704453110694885,-70.49878215789795,-1.7799343100170648,0,True
24.166666666666668,0.15146923065185547,-69.62833684682846,-1.26133546465054,0,True
24.2,0.025125443935394287,-69.4768676161766,-0.7473559565251886,0,True
24.233333333333334,0.09317398071289062,-69.45174217224121,-0.2967916684816069,0,True
24.266666666666666,0.012768030166625978,-69.35856819152832,0.06799523615485142,0,True
24.3,0.3564776182174682,-69.3458001613617,0.36035343702908657,0,True
24.333333333333332,0.04288339614868164,-68.98932254314423,0.6121871623656543,0,True
24.366666666666667,-0.09862929582595824,-68.94643914699554,0.8531631192808883,0,True
24.4,-0.009038686752319336,-69.0450684428215,1.094931604478609,0,True
24.433333333333334,0.12255650758743288,-69.05410712957382,1.3235357215812311,0,True
24.466666666666665,0.0934838056564331,-68.93155062198639,1.5027544879962151,0,True
24.5,0.05241286754608155,-68.83806681632996,1.5907225076734166,0,True
24.533333333333335,-0.39205026626586914,-68.78565394878387,1.5651779006377928,0,True
24.566666666666666,-0.3750320672988891,-69.17770421504974,1.4431090353310754,0,True
24.6,-0.32052195072174067,-69.55273628234863,1.2793935031878443,0,True
24.633333333333333,-0.160691499710083,-69.87325823307037,1.1411449423603794,0,True
24.666666666666668,0.018497765064239502,-70.03394973278046,1.0718036056649214,0,True
24.7,-0.05722522735595704,-70.01545196771622,1.0672855390093434,0,True
24.733333333333334,-0.05739390850067139,-70.07267719507217,1.0790554429771242,0,True
24.766666666666666,-0.38794469833374023,-70.13007110357285,1.0417554632343093,0,True
24.8,-0.3948640823364258,-70.51801580190659,0.9081461808840191,0,True
24.833333333333332,-0.38436704874038696,-70.91287988424301,0.6710266404636226,0,True
24.866666666666667,-0.37071049213409424,-71.2972469329834,0.3615426204653055,0,True
24.9,-0.4313471317291259,-71.66795742511749,0.02812384577183287,0,True
24.933333333333334,-0.37664282321929937,-72.09930455684662,-0.2898076190947624,0,True
24.966666666666665,0.0058400630950927734,-72.47594738006592,-0.5781838782505794,0,True
25.0,-0.25899654626846313,-72.47010731697083,-0.8453132822392523,0,True
25.033333333333335,-0.3850953578948975,-72.72910386323929,-1.1008856660787327,0,True
25.066666666666666,-0.332095980644226,-73.11419922113419,-1.3307186733749015,0,True
25.1,-0.1794309616088867,-73.44629520177841,-1.4862529566954936,0,True
25.133333333333333,-0.04927104711532593,-73.6257261633873,-1.4990292696303702,0,True
25.166666666666668,0.22526878118515015,-73.67499721050262,-1.3137500160817766,0,True
25.2,0.4421939551830292,-73.44972842931747,-0.9218659310806995,0,True
25.233333333333334,0.31870421767234797,-73.00753447413445,-0.37758927505224316,0,True
25.266666666666666,0.16498869657516477,-72.6888302564621,0.21168882386680563,0,True
25.3,0.3319559395313263,-72.52384155988693,0.715161367107229,0,True
25.333333333333332,-0.21157622337341309,-72.1918856203556,1.0149915817478876,0,True
25.366666666666667,-0.23654198646545407,-72.40346184372902,1.036382744689264,0,True
25.4,-0.059005141258239746,-72.64000383019447,0.764278737020043,0,True
25.433333333333334,-0.15994924306869507,-72.69900897145271,0.24661282511025653,0,True
25.466666666666665,-0.2938438057899475,-72.85895821452141,-0.4120438970647509,0,True
25.5,-0.3760266900062561,-73.15280202031136,-1.065619529204298,0,True
25.533333333333335,-0.4224087595939636,-73.52882871031761,-1.5551778289652876,0,True
25.566666666666666,0.37541577219963074,-73.95123746991158,-1.7525385090046968,0,True
25.6,0.6381208896636962,-73.57582169771194,-1.6061619341445788,0,True
25.633333333333333,0.8279892206192017,-72.93770080804825,-1.1648570398719647,0,True
25.666666666666668,0.23707783222198486,-72.10971158742905,-0.5616053130176234,0,True
25.7,0.5369798541069031,-71.87263375520706,0.036342668776014754,0,True
25.733333333333334,0.15387243032455442,-71.33565390110016,0.4845142897905832,0,True
25.766666666666666,-0.26644790172576904,-71.1817814707756,0.6986281055246109,0,True
25.8,-0.09010970592498779,-71.44822937250137,0.6617403980363877,0,True
25.833333333333332,0.6534284949302672,-71.53833907842636,0.40957092292943825,0,True
25.866666666666667,0.04630899429321289,-70.8849105834961,0.014042486514372236,0,True
25.9,-0.12019181251525876,-70.83860158920288,-0.42070980656588597,0,True
25.933333333333334,-0.43476676940917974,-70.95879340171814,-0.7585571986259373,0,True
25.966666666666665,-0.42759746313095087,-71.39356017112732,-0.8532404631893242,0,True
26.0,0.6837490200996399,-71.82115763425827,-0.6034974737341526,0,True
26.033333333333335,1.2256450653076172,-71.13740861415863,-0.016603955092540344,0,True
26.066666666666666,0.8604407906532286,-69.91176354885101,0.7680937281363437,0,True
26.1,0.288377046585083,-69.05132275819778,1.5260027809089496,0,True
26.133333333333333,-0.35334306955337524,-68.7629457116127,2.044779113535172,0,True
26.166666666666668,-0.2876473665237427,-69.11628878116608,2.214507219255599,0,True
26.2,-0.3311762809753418,-69.40393614768982,2.0592794264882666,0,True
26.233333333333334,-0.22545039653778076,-69.73511242866516,1.7007525656060856,0,True
26.266666666666666,0.0029768347740173344,-69.96056282520294,1.2848924408930376,0,True
26.3,-0.20720416307449344,-69.95758599042892,0.9163428645964452,0,True
26.333333333333332,-0.23026889562606812,-70.16479015350342,0.6301359776695651,0,True
26.366666666666667,-0.35559809207916254,-70.39505904912949,0.4038002059628038,0,True
26.4,-0.26108694076538086,-70.75065714120865,0.19244199775174142,0,True
26.433333333333334,-0.13098782300949097,-71.01174408197403,-0.035536414839861453,0,True
26.466666666666665,-0.40194344520568853,-71.14273190498352,-0.27732290860507075,0,True
26.5,-0.309335708618164,-71.54467535018921,-0.49493541153377413,0,True
26.533333333333335,-0.2961985468864441,-71.85401105880737,-0.6332985652173799,0,True
26.566666666666666,0.2857481837272644,-72.15020960569382,-0.6486459480309839,0,True
26.6,0.09093657135963439,-71.86446142196655,-0.5325199949059075,0,True
26.633333333333333,-0.16094613075256345,-71.77352485060692,-0.3181305790400033,0,True
26.666666666666668,-0.016569852828979492,-71.93447098135948,-0.06774357920082164,0,True
26.7,0.06311154365539552,-71.95104083418846,0.14817149442222383,0,True
26.733333333333334,-0.1746562123298645,-71.88792929053307,0.26844678424546176,0,True
26.766666666666666,-0.23827779293060303,-72.06258550286293,0.2508934795797057,0,True
26.8,-0.37009942531585693,-72.30086329579353,0.07481266782758834,0,True
26.833333333333332,-0.3850566148757935,-72.67096272110939,-0.26113623391638496,0,True
26.866666666666667,-0.31816095113754267,-73.05601933598518,-0.7412326955614507,0,True
26.9,-0.2842491865158081,-73.37418028712273,-1.3299842723631696,0,True
26.933333333333334,-0.29462611675262457,-73.65842947363853,-1.963231209273817,0,True
26.966666666666665,-0.3513309955596924,-73.95305559039116,-2.5399562041637167,0,True
27.0,-0.19474720954895022,-74.30438658595085,-2.9279507188279776,0,True
27.033333333333335,-0.11854970455169679,-74.4991337954998,-2.993621291303085,0,True
27.066666666666666,0.41395556926727295,-74.6176835000515,-2.6522362449546932,0,True
27.1,0.9080345630645751,-74.20372793078423,-1.9168987094169048,0,True
27.133333333333333,1.1758959293365479,-73.29569336771965,-0.9155385840586966,0,True
27.166666666666668,0.3250713050365448,-72.1197974383831,0.14357260988114653,0,True
27.2,0.47065478563308716,-71.79472613334656,1.0475941795014396,0,True
27.233333333333334,-0.037534475326538086,-71.32407134771347,1.6580313313060504,0,True
27.266666666666666,-0.17462658882141116,-71.36160582304001,1.951431783716578,0,True
27.3,-0.24379837512969968,-71.53623241186142,2.003787282728593,0,True
27.333333333333332,0.2443614304065704,-71.78003078699112,1.9323702945419592,0,True
27.366666666666667,0.2727235555648803,-71.53566935658455,1.8307269464979359,0,True
27.4,-0.016223311424255368,-71.26294580101967,1.733288599024016,0,True
27.433333333333334,-0.24833643436431885,-71.27916911244392,1.6237851065935185,0,True
27.466666666666665,-0.350172221660614,-71.52750554680824,1.471431994587504,0,True
27.5,-0.328959345817566,-71.87767776846886,1.2641644239592502,0,True
27.533333333333335,-0.1167636513710022,-72.20663711428642,1.0179082176984982,0,True
27.566666666666666,-0.13083446025848386,-72.32340076565742,0.7624384575354444,0,True
27.6,-0.2917739152908325,-72.45423522591591,0.5193054451503623,0,True
27.633333333333333,-0.3892477750778198,-72.74600914120674,0.2875848600141553,0,True
27.666666666666668,-0.09663039445877077,-73.13525691628456,0.044465621502769614,0,True
27.7,-0.3433256149291992,-73.23188731074333,-0.24014966500223248,0,True
27.733333333333334,-0.28013432025909424,-73.57521292567253,-0.5802610110953946,0,True
27.766666666666666,-0.37449878454208374,-73.85534724593163,-0.9513161973287756,0,True
27.8,-0.43209290504455566,-74.22984603047371,-1.2819586681838495,0,True
27.833333333333332,-0.39854019880294794,-74.66193893551826,-1.4702320521083656,0,True
27.866666666666667,-0.08971172571182251,-75.06047913432121,-1.4230688364831652,0,True
27.9,0.516684353351593,-75.15019086003304,-1.1026991262518473,0,True
27.933333333333334,0.5044252872467041,-74.63350650668144,-0.5541460581705373,0,True
27.966666666666665,0.0004304051399230957,-74.12908121943474,0.10528877472284516,0,True
28.0,0.02053534984588623,-74.12865081429482,0.7305606990081281,0,True
28.033333333333335,-0.14206922054290774,-74.10811546444893,1.2013709569120932,0,True
28.066666666666666,-0.2735487222671509,-74.25018468499184,1.454650324590659,0,True
28.1,-0.28217434883117676,-74.52373340725899,1.4862554919466706,0,True
28.133333333333333,-0.2525981664657593,-74.80590775609016,1.3304365599082848,0,True
28.166666666666668,-0.28904676437377924,-75.05850592255592,1.0348693947187328,0,True
28.2,-0.40171635150909424,-75.3475526869297,0.6462402551929797,0,True
28.233333333333334,-0.37924963235855097,-75.7492690384388,0.2102913212494973,0,True
28.266666666666666,-0.4575744867324829,-76.12851867079735,-0.22145577427215796,0,True
28.3,-0.3591498136520386,-76.58609315752983,-0.5906194983716577,0,True
28.333333333333332,-0.2856663465499878,-76.94524297118187,-0.8439833126646109,0,True
28.366666666666667,-0.16344809532165525,-77.23090931773186,-0.955609872161833,0,True
28.4,0.22988522052764893,-77.39435741305351,-0.9463689080107124,0,True
28.433333333333334,0.07748919725418092,-77.16447219252586,-0.8855691120821466,0,True
28.466666666666665,-0.1693511605262756,-77.08698299527168,-0.8673831935030706,0,True
28.5,-0.4557535648345947,-77.25633415579796,-0.9705749455088887,0,True
28.533333333333335,-0.2882064580917358,-77.71208772063255,-1.2223589301430442,0,True
28.566666666666666,-0.14503574371337888,-78.00029417872429,-1.5847415582975133,0,True
28.6,-0.17168432474136353,-78.14532992243767,-1.9668160650364317,0,True
28.633333333333333,-0.27456980943679815,-78.31701424717903,-2.2535518721413488,0,True
28.666666666666668,0.1919543445110321,-78.59158405661583,-2.339214151678318,0,True
28.7,0.27536410093307495,-78.3996297121048,-2.156515382729683,0,True
28.733333333333334,0.38793712854385376,-78.12426561117172,-1.6943271559840898,0,True
28.766666666666666,0.538759469985962,-77.73632848262787,-0.9991527230197401,0,True
28.8,0.4432153701782226,-77.1975690126419,-0.16125931135365168,0,True
28.833333333333332,0.23265108466148376,-76.75435364246368,0.7079895884225289,0,True
28.866666666666667,0.5269283652305603,-76.5217025578022,1.4995347477033263,0,True
28.9,0.3219234943389892,-75.99477419257164,2.1255868310360873,0,True
28.933333333333334,-0.13781273365020752,-75.67285069823265,2.5328446108787332,0,True
28.966666666666665,-0.19125282764434812,-75.81066343188286,2.70874016318537,0,True
29.0,-0.24484747648239136,-76.0019162595272,2.6775220584122934,0,True
29.033333333333335,-0.2922053337097168,-76.2467637360096,2.486061754708798,0,True
29.066666666666666,-0.24804663658142093,-76.53896906971931,2.186684849420013,0,True
29.1,-0.14565950632095337,-76.78701570630074,1.827158851199325,0,True
29.133333333333333,-0.3533412218093872,-76.93267521262169,1.4521453631412806,0,True
29.166666666666668,-0.5301167964935304,-77.28601643443108,1.1103311059797336,0,True
29.2,-0.32300603389739985,-77.8161332309246,0.8549077962253416,0,True
29.233333333333334,-0.17185622453689575,-78.139139264822,0.7290391370782903,0,True
29.266666666666666,-0.23581975698471072,-78.3109954893589,0.7415772936325192,0,True
29.3,0.5230127573013306,-78.54681524634361,0.8503761241392509,0,True
29.333333333333332,-0.034101784229278564,-78.02380248904228,0.9700461726626451,0,True
29.366666666666667,-0.43065363168716425,-78.05790427327156,1.0062688809290012,0,True
29.4,-0.4084979891777038,-78.48855790495872,0.898289936356103,0,True
29.433333333333334,-0.435737669467926,-78.89705589413643,0.6417263068786213,0,True
29.466666666666665,-0.40963697433471685,-79.33279356360435,0.2766929056411277,0,True
29.5,-0.3215463757514953,-79.74243053793907,-0.1489306894673165,0,True
29.533333333333335,-0.1957007646560669,-80.06397691369057,-0.6153674533603357,0,True
29.566666666666666,-0.4105923175811767,-80.25967767834663,-1.14219140777887,0,True
29.6,-0.42711168527603144,-80.67026999592781,-1.7667052479788385,0,True
29.633333333333333,-0.39124810695648193,-81.09738168120384,-2.5006628853250636,0,True
29.666666666666668,-0.41210442781448364,-81.48862978816032,-3.2894845957859706,0,True
29.7,-0.31864422559738165,-81.90073421597481,-3.9986975081132536,0,True
29.733333333333334,-0.24994874000549316,-82.21937844157219,-4.441889389687134,0,True
29.766666666666666,-0.04964125156402588,-82.46932718157768,-4.446725486016325,0,True
29.8,1.084215760231018,-82.51896843314171,-3.9345724189585916,0,True
29.833333333333332,1.3456532955169678,-81.43475267291069,-2.9733910570915345,0,True
29.866666666666667,1.304931044578552,-80.08909937739372,-1.7671737212395737,0,True
29.9,0.5195482969284058,-78.78416833281517,-0.5771760271721604,0,True
29.933333333333334,-0.01863330602645874,-78.26462003588676,0.384835177237629,0,True
29.966666666666665,-0.2957717180252075,-78.28325334191322,1.028912753433649,0,True
30.0,0.5971003174781799,-78.57902505993843,1.3857708322904239,0,True
30.033333333333335,0.7292289137840272,-77.98192474246025,1.5461059886590773,0,True
30.066666666666666,0.5594254732131959,-77.25269582867622,1.593603808953661,0,True
30.1,-0.11696636676788327,-76.69327035546303,1.5774798072500245,0,True
30.133333333333333,-0.2859078645706177,-76.81023672223091,1.5270723735564904,0,True
30.166666666666668,-0.09208035469055174,-77.09614458680153,1.4754974194307013,0,True
30.2,0.28402388095855713,-77.18822494149208,1.4621429111565618,0,True
30.233333333333334,0.448650598526001,-76.90420106053352,1.5136086660822983,0,True
30.266666666666666,0.2321575284004212,-76.45555046200752,1.625652535578689,0,True
30.3,0.2659960091114044,-76.2233929336071,1.7653216047682678,0,True
30.333333333333332,-0.07297646999359131,-75.9573969244957,1.8920049579879632,0,True
30.366666666666667,-0.022841155529022217,-76.03037339448929,1.9802489385733901,0,True
30.4,-0.04517507553100585,-76.05321455001831,2.0276083909209723,0,True
30.433333333333334,0.2093859612941742,-76.09838962554932,2.0439584834510884,0,True
30.466666666666665,0.08703699707984924,-75.88900366425514,2.0328556792219383,0,True
30.5,-0.03387528657913208,-75.8019666671753,1.9797934999202889,0,True
30.533333333333335,-0.31279635429382324,-75.83584195375443,1.8542853345848114,0,True
30.566666666666666,-0.31882828474044794,-76.14863830804825,1.6211790745289292,0,True
30.6,-0.28034985065460205,-76.4674665927887,1.252335044289944,0,True
30.633333333333333,-0.37731111049652105,-76.7478164434433,0.734678734842613,0,True
30.666666666666668,-0.504008412361145,-77.12512755393982,0.07671757927680241,0,True
30.7,-0.48165845870971685,-77.62913596630096,-0.6844732134240192,0,True
30.733333333333334,-0.3930654525756836,-78.11079442501068,-1.4785217797505539,0,True
30.766666666666666,-0.33343684673309326,-78.50385987758636,-2.205175716950583,0,True
30.8,-0.26237303018569946,-78.83729672431946,-2.750780996544765,0,True
30.833333333333332,-0.1523113250732422,-79.09966975450516,-3.018716296778352,0,True
30.866666666666667,-0.04848086833953857,-79.2519810795784,-2.967968673478122,0,True
30.9,0.3673839867115021,-79.30046194791794,-2.645244862775871,0,True
30.933333333333334,0.7198050618171692,-78.93307796120644,-2.1897398656713496,0,True
30.966666666666665,0.3142205476760864,-78.21327289938927,-1.794295990230151,0,True
31.0,-0.2062960863113403,-77.89905235171318,-1.6274300620090956,0,True
31.033333333333335,-0.09354919195175171,-78.10534843802452,-1.7488814788255056,0,True
31.066666666666666,-0.3723034858703613,-78.19889762997627,-2.0648410308466025,0,True
31.1,-0.1942542791366577,-78.57120111584663,-2.3537014629694983,0,True
31.133333333333333,-0.057967305183410645,-78.76545539498329,-2.358242699686427,0,True
31.166666666666668,0.9482667446136473,-78.8234227001667,-1.9055369116244787,0,True
31.2,1.352486252784729,-77.87515595555305,-0.9967431534917901,0,True
31.233333333333334,1.321008563041687,-76.52266970276833,0.1830314570582219,0,True
31.266666666666666,0.22025161981582642,-75.20166113972664,1.3450836310542915,0,True
31.3,-0.18627339601516724,-74.98140951991081,2.224810769980227,0,True
31.333333333333332,-0.14539986848831177,-75.16768291592598,2.685168569604614,0,True
31.366666666666667,0.22388613224029538,-75.31308278441429,2.7449539584533107,0,True
31.4,0.023831665515899658,-75.089196652174,2.533308329569598,0,True
31.433333333333334,-0.2658975124359131,-75.0653649866581,2.2114451656719147,0,True
31.466666666666665,-0.16936838626861572,-75.33126249909401,1.904829541442645,0,True
31.5,-0.04318708181381225,-75.50063088536263,1.6679605097604326,0,True
31.533333333333335,0.016162991523742676,-75.54381796717644,1.4848428677424634,0,True
31.566666666666666,-0.1527736186981201,-75.5276549756527,1.2980804073519472,0,True
31.6,-0.4142643213272094,-75.68042859435081,1.051720643519864,0,True
31.633333333333333,-0.47799849510192866,-76.09469291567802,0.727048374002354,0,True
31.666666666666668,-0.29552143812179565,-76.57269141077995,0.35372204315696726,0,True
31.7,-0.2692145109176636,-76.86821284890175,-0.0069891433147303925,0,True
31.733333333333334,-0.30372774600982666,-77.13742735981941,-0.2938499541648634,0,True
31.766666666666666,-0.08826470375061034,-77.44115510582924,-0.4726947167910335,0,True
31.8,0.19000068306922913,-77.52941980957985,-0.5449253104866136,0,True
31.833333333333332,-0.31169307231903076,-77.33941912651062,-0.5353058859605186,0,True
31.866666666666667,-0.3508787155151367,-77.65111219882965,-0.4695294644642261,0,True
31.9,-0.4711334705352782,-78.00199091434479,-0.3596129185148712,0,True
31.933333333333334,-0.008363604545593263,-78.47312438488007,-0.20919589580941444,0,True
31.966666666666665,0.49095916748046864,-78.48148798942566,-0.032094995772922234,0,True
32.0,-0.3400900363922119,-77.99052882194519,0.13675442439964475,0,True
32.03333333333333,-0.3753666877746582,-78.3306188583374,0.25174041407698666,0,True
32.06666666666667,-0.3944621086120605,-78.70598554611206,0.2801237790589692,0,True
32.1,-0.37082684040069586,-79.10044765472412,0.21832228034769374,0,True
32.13333333333333,-0.22991567850112912,-79.47127449512482,0.09014008868401757,0,True
32.166666666666664,-0.24569976329803467,-79.70119017362595,-0.06714825910555383,0,True
32.2,-0.21363544464111325,-79.94688993692398,-0.21656952521383024,0,True
32.233333333333334,-0.2273215055465698,-80.1605253815651,-0.3282418387534779,0,True
32.266666666666666,-0.3082449436187744,-80.38784688711166,-0.38123372765382274,0,True
32.3,-0.38737714290618896,-80.69609183073044,-0.36700695095843694,0,True
32.333333333333336,-0.07026779651641846,-81.08346897363663,-0.2977698713254925,0,True
32.36666666666667,-0.00580906867980957,-81.15373677015305,-0.21450801497504993,0,True
32.4,-0.07831573486328124,-81.15954583883286,-0.1830979752758614,0,True
32.43333333333333,-0.16017007827758786,-81.23786157369614,-0.27104190375097315,0,True
32.46666666666667,-0.44938254356384283,-81.39803165197372,-0.5115377210927043,0,True
32.5,-0.4239053726196289,-81.84741419553757,-0.8746549932640969,0,True
32.53333333333333,-0.4487854242324829,-82.2713195681572,-1.266038818009411,0,True
32.56666666666667,-0.23155003786087036,-82.72010499238968,-1.5601212414082408,0,True
32.6,0.02637076377868652,-82.95165503025055,-1.655200846934528,0,True
32.63333333333333,0.2570264935493469,-82.92528426647186,-1.5235085962501096,0,True
32.666666666666664,0.328689694404602,-82.66825777292252,-1.2290253253289647,0,True
32.7,0.09285759925842285,-82.33956807851791,-0.9006907459394776,0,True
32.733333333333334,-0.08509314060211182,-82.24671047925949,-0.6717088344248312,0,True
32.766666666666666,-0.1655534505844116,-82.3318036198616,-0.6140404693838176,0,True
32.8,-0.05547052621841431,-82.49735707044601,-0.6999207307366708,0,True
32.833333333333336,-0.2559776306152344,-82.55282759666443,-0.8086758998191172,0,True
32.86666666666667,-0.019630312919616696,-82.80880522727966,-0.7765371922922879,0,True
32.9,0.46595528721809387,-82.82843554019928,-0.46917175274003253,0,True
32.93333333333333,0.6560089588165283,-82.36248025298119,0.15408547612604312,0,True
32.96666666666667,0.41384035348892206,-81.70647129416466,1.0143201112443505,0,True
33.0,0.8691983222961426,-81.29263094067574,1.9391035011931215,0,True
33.03333333333333,0.07406032085418701,-80.4234326183796,2.729084514152449,0,True
33.06666666666667,-0.27756786346435547,-80.3493722975254,3.2339392647351644,0,True
33.1,-0.19273942708969113,-80.62694016098976,3.401954549640931,0,True
33.13333333333333,-0.3259236216545105,-80.81967958807945,3.281435381109736,0,True
33.166666666666664,-0.14523673057556152,-81.14560320973396,2.9789461427965,0,True
33.2,-0.2768293619155884,-81.29083994030952,2.6017237479690403,0,True
33.233333333333334,-0.15902316570281982,-81.56766930222511,2.214765741226325,0,True
33.266666666666666,-0.3412092924118042,-81.72669246792793,1.829305504920737,0,True
33.3,-0.3394778370857238,-82.06790176033974,1.420771130585446,0,True
33.333333333333336,-0.3545053601264953,-82.40737959742546,0.9610618874617415,0,True
33.36666666666667,-0.3607766628265381,-82.76188495755196,0.44657199089796673,0,True
33.4,-0.3197370767593383,-83.1226616203785,-0.09125830283262745,0,True
33.43333333333333,-0.3025979995727539,-83.44239869713783,-0.5966245154051542,0,True
33.46666666666667,-0.1737402677536011,-83.74499669671059,-1.015794770134648,0,True
33.5,-0.23474216461181643,-83.91873696446419,-1.3270704444181816,0,True
33.53333333333333,0.04333382844924927,-84.153479129076,-1.5591693121598933,0,True
33.56666666666667,0.20994687080383298,-84.11014530062675,-1.7852437672679111,0,True
33.6,0.1460895538330078,-83.90019842982292,-2.0884106247901193,0,True
33.63333333333333,-0.18474185466766357,-83.75410887598991,-2.509778425714024,0,True
33.666666666666664,-0.4423847198486328,-83.93885073065758,-3.006050438417328,0,True
33.7,-0.27747678756713867,-84.38123545050621,-3.4476953211553667,0,True
33.733333333333334,0.07237634062767029,-84.65871223807335,-3.669914592848039,0,True
33.766666666666666,1.0400880575180054,-84.58633589744568,-3.5541552290191256,0,True
33.8,1.2629354000091555,-83.54624783992767,-3.0918414753641117,0,True
33.833333333333336,0.8735619187355042,-82.28331243991852,-2.387678098347436,0,True
33.86666666666667,0.7843726277351379,-81.40975052118301,-1.5986895368661265,0,True
33.9,0.23211845755577087,-80.62537789344788,-0.8498195823072896,0,True
33.93333333333333,0.33617284893989563,-80.3932594358921,-0.18214722961605997,0,True
33.96666666666667,1.0757896900177002,-80.05708658695221,0.4357989665923456,0,True
34.0,0.6467657685279846,-78.98129689693451,1.0487172726214096,0,True
34.03333333333333,1.2342629432678225,-78.33453112840652,1.65370504417772,0,True
34.06666666666667,0.7719151973724365,-77.1002681851387,2.180651821661403,0,True
34.1,0.2823602557182312,-76.32835298776627,2.524714473714474,0,True
34.13333333333333,-0.2625387907028198,-76.04599273204803,2.6065577686821144,0,True
34.166666666666664,0.1997123062610626,-76.30853152275085,2.420250934163836,0,True
34.2,0.36746495962142944,-76.10881921648979,2.0417259779952412,0,True
34.233333333333334,0.23663556575775144,-75.74135425686836,1.6000035495631197,0,True
34.266666666666666,0.022239208221435543,-75.50471869111061,1.2320558333250597,0,True
34.3,-0.22992807626724243,-75.48247948288918,1.0388438750582758,0,True
34.333333333333336,0.8735729455947876,-75.71240755915642,1.0505286037838288,0,True
34.36666666666667,0.36789274215698237,-74.83883461356163,1.2096579107289753,0,True
34.4,0.32501542568206787,-74.47094187140465,1.3850403478719104,0,True
34.43333333333333,-0.09425294399261475,-74.14592644572258,1.419110561857068,0,True
34.46666666666667,-0.29245853424072266,-74.2401793897152,1.1912511196552067,0,True
34.5,-0.25802743434906006,-74.53263792395592,0.6690569982434107,0,True
34.53333333333333,-0.3038185834884644,-74.79066535830498,-0.07276121284012071,0,True
34.56666666666667,-0.3224210739135742,-75.09448394179344,-0.8705646877645428,0,True
34.6,-0.39907348155975336,-75.41690501570702,-1.5202303347943988,0,True
34.63333333333333,-0.37050873041152954,-75.81597849726677,-1.8432389724372698,0,True
34.666666666666664,0.5994015932083131,-76.1864872276783,-1.7522006565237214,0,True
34.7,0.7111152410507201,-75.58708563446999,-1.2905718695936854,0,True
34.733333333333334,0.23439744114875793,-74.87597039341927,-0.6228264301043149,0,True
34.766666666666666,0.326180636882782,-74.64157295227051,0.027968222677661407,0,True
34.8,-0.3890948295593261,-74.31539231538773,0.46773055029799787,0,True
34.833333333333336,-0.495349645614624,-74.70448714494705,0.6011974796578231,0,True
34.86666666666667,-0.229248046875,-75.19983679056168,0.4527124477372814,0,True
34.9,-0.42832875251770014,-75.42908483743668,0.1351245988062461,0,True
34.93333333333333,-0.3270587921142578,-75.85741358995438,-0.210161634504256,0,True
34.96666666666667,-0.07907474040985107,-76.18447238206863,-0.4704356036029924,0,True
35.0,-0.24364197254180908,-76.26354712247849,-0.5939971111795057,0,True
35.03333333333333,-0.42128169536590576,-76.5071890950203,-0.5919550538527816,0,True
35.06666666666667,-0.1843881607055664,-76.9284707903862,-0.5181949606434767,0,True
35.1,-0.22229218482971191,-77.11285895109177,-0.4418047834404722,0,True
35.13333333333333,-0.26258909702301025,-77.33515113592148,-0.42207013803589766,0,True
35.166666666666664,-0.4210181832313538,-77.59774023294449,-0.4896467026849194,0,True
35.2,-0.2578868865966797,-78.01875841617584,-0.6357416149649271,0,True
35.233333333333334,-0.432863712310791,-78.27664530277252,-0.8120360801239238,0,True
35.266666666666666,-0.2966714501380921,-78.70950901508331,-0.943090889832372,0,True
35.3,-0.2761157155036927,-79.0061804652214,-0.9497904207978565,0,True
35.333333333333336,-0.02113056182861328,-79.2822961807251,-0.7781582050222496,0,True
35.36666666666667,-0.04798340797424316,-79.30342674255371,-0.42370779921450075,0,True
35.4,0.3168610632419586,-79.35141015052795,0.05973679428635591,0,True
35.43333333333333,-0.06283330917358398,-79.034549087286,0.5732675700875878,0,True
35.46666666666667,-0.2342495322227478,-79.09738239645958,1.0048883884745643,0,True
35.5,-0.2164177894592285,-79.33163192868233,1.2668971272515666,0,True
35.53333333333333,-0.3799816370010376,-79.54804971814156,1.3223196103010486,0,True
35.56666666666667,-0.4099432229995727,-79.9280313551426,1.1909668452818576,0,True
35.6,-0.42002475261688227,-80.33797457814217,0.9361027405713008,0,True
35.63333333333333,-0.4983010292053222,-80.75799933075905,0.6393210595802059,0,True
35.666666666666664,-0.29151177406311035,-81.25630035996437,0.3731210279880456,0,True
35.7,-0.31397193670272827,-81.54781213402748,0.1799573423104506,0,True
35.733333333333334,-0.32975780963897705,-81.86178407073021,0.06400784075112988,0,True
35.766666666666666,-0.27865648269653315,-82.19154188036919,-0.0025176795812360845,0,True
35.8,-0.35023075342178345,-82.47019836306572,-0.0616702874568632,0,True
35.833333333333336,-0.015158891677856445,-82.8204291164875,-0.14682999285829978,0,True
35.86666666666667,-0.21592837572097778,-82.83558800816536,-0.26153100928260437,0,True
35.9,-0.2762104272842407,-83.05151638388634,-0.36796530004626105,0,True
35.93333333333333,-0.4472213983535767,-83.32772681117058,-0.39429166598330506,0,True
35.96666666666667,-0.41264152526855463,-83.77494820952415,-0.2659810475373007,0,True
36.0,0.6192300915718079,-84.18758973479271,0.047492206169633344,0,True
36.03333333333333,0.5930215716362001,-83.5683596432209,0.4968514576175022,0,True
36.06666666666667,0.039043426513671875,-82.9753380715847,0.9571271348482087,0,True
36.1,-0.4416918754577636,-82.93629464507103,1.2769914024140887,0,True
36.13333333333333,-0.4055982828140258,-83.3779865205288,1.3449461667890221,0,True
36.166666666666664,-0.30808359384536743,-83.78358480334282,1.1328758274642852,0,True
36.2,-0.374148964881897,-84.09166839718819,0.6979190125111753,0,True
36.233333333333334,-0.3145588040351868,-84.46581736207008,0.15177986037732932,0,True
36.266666666666666,-0.18940120935440063,-84.78037616610527,-0.3812036458480213,0,True
36.3,-0.31736075878143305,-84.96977737545967,-0.8005312485883154,0,True
36.333333333333336,-0.1639125943183899,-85.2871381342411,-1.0536596057723095,0,True
36.36666666666667,-0.11299413442611693,-85.4510507285595,-1.147209750282668,0,True
36.4,-0.07322824001312254,-85.56404486298561,-1.1450570632789023,0,True
36.43333333333333,-0.021364212036132812,-85.63727310299873,-1.1504665224463946,0,True
36.46666666666667,0.26258793473243713,-85.65863731503487,-1.2698651981209192,0,True
36.5,-0.29101574420928955,-85.39604938030243,-1.5630474014111269,0,True
36.53333333333333,-0.36487889289855957,-85.68706512451172,-1.9970459074610356,0,True
36.56666666666667,-0.2727563381195068,-86.05194401741028,-2.430337890063495,0,True
36.6,-0.020084977149963375,-86.32470035552979,-2.6481615985776483,0,True
36.63333333333333,-0.009457826614379881,-86.34478533267975,-2.445492707786637,0,True
36.666666666666664,1.158742427825928,-86.35424315929413,-1.7252548837913404,0,True
36.7,1.2285530567169192,-85.1955007314682,-0.5634418944119481,0,True
36.733333333333334,1.0306406021118162,-83.96694767475128,0.7987361260360464,0,True
36.766666666666666,0.6323376893997192,-82.93630707263947,2.0409119185447175,0,True
36.8,-0.4293138980865479,-82.30396938323975,2.888241291977686,0,True
36.833333333333336,-0.4040262699127197,-82.7332832813263,3.210914824877901,0,True
36.86666666666667,-0.32687276601791376,-83.13730955123901,3.050519788199929,0,True
36.9,-0.12526512145996094,-83.46418231725693,2.570517457101283,0,True
36.93333333333333,-0.24151337146759033,-83.58944743871689,1.9699141310360375,0,True
36.96666666666667,-0.2709534168243408,-83.83096081018448,1.4091635494963615,0,True
37.0,-0.32192230224609375,-84.10191422700882,0.9757376775335221,0,True
37.03333333333333,-0.37646150588989263,-84.42383652925491,0.6874652108996678,0,True
37.06666666666667,-0.1767119765281677,-84.8002980351448,0.5156009281910406,0,True
37.1,-0.2574489116668701,-84.97701001167297,0.4103916807445256,0,True
37.13333333333333,0.10241109132766724,-85.23445892333984,0.3212208913190042,0,True
37.166666666666664,-0.2933623790740967,-85.13204783201218,0.21089869180336582,0,True
37.2,-0.416627287864685,-85.42541021108627,0.06417924705327888,0,True
37.233333333333334,-0.3736355304718017,-85.84203749895096,-0.11284472843874589,0,True
37.266666666666666,-0.4161005020141601,-86.21567302942276,-0.3050382211581434,0,True
37.3,-0.2095876932144165,-86.63177353143692,-0.5065505827259551,0,True
37.333333333333336,-0.1951553225517273,-86.84136122465134,-0.7314098342045275,0,True
37.36666666666667,-0.31568205356597895,-87.03651654720306,-1.0044519990690826,0,True
37.4,-0.3353747725486755,-87.35219860076904,-1.3334421423720018,0,True
37.43333333333333,-0.38646411895751953,-87.68757337331772,-1.6785498806408639,0,True
37.46666666666667,-0.3593069314956665,-88.07403749227524,-1.942051796537924,0,True
37.5,-0.32745003700256353,-88.4333444237709,-1.9936775987749726,0,True
37.53333333333333,-0.08057039976119994,-88.76079446077347,-1.7283755172845106,0,True
37.56666666666667,0.5455364584922789,-88.84136486053467,-1.1317272293472842,0,True
37.6,0.9923217296600341,-88.29582840204239,-0.3149208814464891,0,True
37.63333333333333,0.4408558607101441,-87.30350667238235,0.5115441222514877,0,True
37.666666666666664,-0.25209903717041016,-86.86265081167221,1.1238107153377264,0,True
37.7,-0.3863343000411987,-87.11474984884262,1.387701032522528,0,True
37.733333333333334,-0.49045038223266596,-87.50108414888382,1.319346685020475,0,True
37.766666666666666,-0.24324494600296023,-87.99153453111649,1.067925948302424,0,True
37.8,-0.12448680400848387,-88.23477947711945,0.8313892424643531,0,True
37.833333333333336,-0.09852433204650879,-88.35926628112793,0.7515368172108654,0,True
37.86666666666667,0.639903724193573,-88.45779061317444,0.8418972287448663,0,True
37.9,0.031066656112670895,-87.81788688898087,0.9835021621430142,0,True
37.93333333333333,-0.2186829447746277,-87.7868202328682,0.9905348238173288,0,True
37.96666666666667,-0.4922488927841186,-88.00550317764282,0.7129182830291287,0,True
38.0,-0.39111232757568365,-88.49775207042694,0.1240027960729948,0,True
38.03333333333333,-0.35362255573272705,-88.88886439800262,-0.6491087114822567,0,True
38.06666666666667,-0.361625075340271,-89.24248695373535,-1.365642070060004,0,True
38.1,-0.09254610538482666,-89.60411202907562,-1.7648128415239812,0,True
38.13333333333333,0.7439240217208862,-89.69665813446045,-1.6764050564787913,0,True
38.166666666666664,0.6949459314346315,-88.95273411273956,-1.102997343506468,0,True
38.2,1.19116735458374,-88.25778818130493,-0.2351164991819349,0,True
38.233333333333334,0.45083397626876826,-87.06662082672119,0.6133433638834533,0,True
38.266666666666666,-0.18634724617004397,-86.61578685045242,1.124787073048366,0,True
38.3,-0.23108065128326416,-86.80213409662247,1.1001930219301834,0,True
38.333333333333336,-0.34517037868499756,-87.03321474790573,0.5314619997393126,0,True
38.36666666666667,-0.3369700908660888,-87.37838512659073,-0.4010866306808483,0,True
38.4,-0.2576478719711303,-87.71535521745682,-1.3964321622105933,0,True
38.43333333333333,-0.09826153516769409,-87.97300308942795,-2.135537130290396,0,True
38.46666666666667,0.1564208865165711,-88.07126462459564,-2.3844866170159524,0,True
38.5,1.1977902650833128,-87.91484373807907,-2.0668994017876376,0,True
38.53333333333333,0.9798101186752319,-86.71705347299576,-1.2817096447096972,0,True
38.56666666666667,0.7564626932144164,-85.73724335432053,-0.2584369812770321,0,True
38.6,0.4363973438739776,-84.98078066110611,0.7317325342009615,0,True
38.63333333333333,0.054898977279663086,-84.54438331723213,1.4687561260472557,0,True
38.666666666666664,0.3794469833374023,-84.48948433995247,1.8415135319847096,0,True
38.7,0.09249925613403322,-84.11003735661507,1.855846499255599,0,True
38.733333333333334,-0.32520025968551636,-84.01753810048103,1.6044181953748244,0,True
38.766666666666666,-0.05968326330184936,-84.34273836016655,1.2203472098962138,0,True
38.8,0.06167644262313842,-84.4024216234684,0.8324766480777642,0,True
38.833333333333336,-0.11916780471801758,-84.34074518084526,0.5333662315245461,0,True
38.86666666666667,-0.1637889742851257,-84.45991298556328,0.36521172604568486,0,True
38.9,0.1941472291946411,-84.6237019598484,0.3217637404163241,0,True
38.93333333333333,-0.05769282579421998,-84.42955473065376,0.3598955275988637,0,True
38.96666666666667,-0.24421560764312747,-84.48724755644798,0.4157423225770117,0,True
39.0,0.0010521411895751953,-84.73146316409111,0.422698880438368,0,True
39.03333333333333,0.057861775159835815,-84.73041102290154,0.3295452912121079,0,True
39.06666666666667,-0.4546852111816406,-84.6725492477417,0.11760493789162291,0,True
39.1,-0.33883035182952875,-85.12723445892334,-0.18654296613751842,0,True
39.13333333333333,-0.40606248378753657,-85.46606481075287,-0.5110799337444987,0,True
39.166666666666664,-0.1813516616821289,-85.8721272945404,-0.7585638345846456,0,True
39.2,-0.3291423916816711,-86.05347895622253,-0.8416179858880951,0,True
39.233333333333334,-0.13029026985168457,-86.3826213479042,-0.7205285485742203,0,True
39.266666666666666,0.6843528747558595,-86.51291161775589,-0.4249530327853639,0,True
39.3,-0.1249561309814453,-85.82855874300003,-0.04619253016467575,0,True
39.333333333333336,-0.34104758501052856,-85.95351487398148,0.3001242991862844,0,True
39.36666666666667,-0.34810590744018544,-86.294562458992,0.5220168360233471,0,True
39.4,-0.364817202091217,-86.64266836643219,0.5824133559964515,0,True
39.43333333333333,-0.27309465408325195,-87.0074855685234,0.49962415869102267,0,True
39.46666666666667,-0.36787027120590204,-87.28058022260666,0.3248373555705204,0,True
39.5,-0.34356206655502325,-87.64845049381256,0.11486157666912934,0,True
39.53333333333333,-0.3640654683113098,-87.99201256036758,-0.08615984295681259,0,True
39.56666666666667,-0.42567855119705195,-88.3560780286789,-0.2525379417606004,0,True
39.6,-0.3545103669166565,-88.78175657987595,-0.37437238011588436,0,True
39.63333333333333,-0.323591411113739,-89.1362669467926,-0.4524346394039286,0,True
39.666666666666664,-0.16039264202117923,-89.45985835790634,-0.4940710787390054,0,True
39.7,-0.3691715002059937,-89.62025099992752,-0.5101048852285827,0,True
39.733333333333334,-0.33877360820770264,-89.98942250013351,-0.5116898336855011,0,True
39.766666666666666,-0.16637867689132693,-90.32819610834122,-0.5072523987892753,0,True
39.8,-0.03767508268356323,-90.49457478523254,-0.4998589742138283,0,True
39.833333333333336,-0.29602372646331787,-90.53224986791611,-0.48451218505631327,0,True
39.86666666666667,-0.31338781118392944,-90.82827359437943,-0.44665621716030607,0,True
39.9,-0.3490359783172607,-91.14166140556335,-0.36648096545666514,0,True
39.93333333333333,-0.0628892183303833,-91.49069738388062,-0.23145748576187178,0,True
39.96666666666667,0.43343386054039,-91.553586602211,-0.050522245017452755,0,True
40.0,-0.340881884098053,-91.12015274167061,0.14274517077428436,0,True
40.03333333333333,-0.24061429500579837,-91.46103462576866,0.3037152778613214,0,True
40.06666666666667,-0.27037119865417475,-91.70164892077446,0.3978427889237753,0,True
40.1,-0.12533020973205566,-91.97202011942863,0.4140309018334182,0,True
40.13333333333333,-0.18199372291564941,-92.09735032916069,0.364085936973589,0,True
40.166666666666664,-0.19767224788665771,-92.27934405207634,0.27367922106560577,0,True
40.2,-0.28061825037002563,-92.477016299963,0.17235927005951188,0,True
40.233333333333334,-0.1423615217208862,-92.75763455033302,0.08564789806371044,0,True
40.266666666666666,-0.310564637184143,-92.89999607205391,0.028967707363745168,0,True
40.3,-0.2695094347000122,-93.21056070923805,0.003542441042655168,0,True
40.333333333333336,0.18877166509628296,-93.48007014393806,-0.003592597076801845,0,True
40.36666666666667,-0.09458494186401366,-93.29129847884178,-0.012332845659308795,0,True
40.4,-0.3944387435913086,-93.3858834207058,-0.03494398155500459,0,True
40.43333333333333,-0.11540442705154419,-93.7803221642971,-0.06184761308389578,0,True
40.46666666666667,-0.24219930171966553,-93.89572659134865,-0.05975417728773962,0,True
40.5,-0.014248311519622804,-94.13792589306831,0.012871472615569245,0,True
40.53333333333333,0.2314772009849548,-94.15217420458794,0.1808809567727825,0,True
40.56666666666667,-0.26746624708175654,-93.92069700360298,0.4325544461604734,0,True
40.6,0.26523229479789734,-94.18816325068474,0.7155762970671224,0,True
40.63333333333333,-0.09841185808181764,-93.92293095588684,0.9506940588198693,0,True
40.666666666666664,-0.319782018661499,-94.02134281396866,1.0572412670205935,0,True
40.7,-0.3690154552459716,-94.34112483263016,0.9805134017940057,0,True
40.733333333333334,-0.41212570667266846,-94.71014028787613,0.7103623098653243,0,True
40.766666666666666,-0.4049301147460938,-95.1222659945488,0.2850001595212113,0,True
40.8,-0.3904116153717041,-95.52719610929489,-0.2186054958998135,0,True
40.833333333333336,-0.42461973428726196,-95.9176077246666,-0.7026401709339374,0,True
40.86666666666667,-0.44960784912109375,-96.34222745895386,-1.070757545944528,0,True
40.9,-0.1883977651596069,-96.79183530807495,-1.252315246100419,0,True
40.93333333333333,-0.15592551231384277,-96.98023307323456,-1.2238060697937316,0,True
40.96666666666667,0.5791643857955933,-97.1361585855484,-1.0185386518015265,0,True
41.0,-0.2581672668457032,-96.55699419975281,-0.7159170114832758,0,True
41.03333333333333,-0.3198658227920532,-96.81516146659851,-0.4113396210996634,0,True
41.06666666666667,0.031048357486724857,-97.13502728939056,-0.18114666573502206,0,True
41.1,-0.15072011947631836,-97.10397893190384,-0.06002087695099112,0,True
41.13333333333333,-0.218363344669342,-97.25469905138016,-0.03730582354371439,0,True
41.166666666666664,-0.2685772180557251,-97.4730623960495,-0.06784749005991897,0,True
41.2,-0.21536427736282346,-97.74163961410522,-0.09137735238961202,0,True
41.233333333333334,-0.2500163316726684,-97.95700389146805,-0.05574039663688649,0,True
41.266666666666666,-0.1145797371864319,-98.20702022314072,0.06230964307155052,0,True
41.3,0.13757020235061646,-98.32159996032715,0.24681888096097399,0,True
41.333333333333336,-0.15090227127075195,-98.18402975797653,0.4489614341171853,0,True
41.36666666666667,-0.3074851036071777,-98.33493202924728,0.6088742570273107,0,True
41.4,-0.3264192342758178,-98.64241713285446,0.6823221371000634,0,True
41.43333333333333,-0.33194631338119507,-98.96883636713028,0.6577422068888902,0,True
41.46666666666667,-0.3840423822402954,-99.30078268051147,0.5558839696159904,0,True
41.5,-0.2810063958168029,-99.68482506275177,0.41538110454861726,0,True
41.53333333333333,-0.3796101808547974,-99.96583145856857,0.2741776568952522,0,True
41.56666666666667,-0.2785542011260986,-100.34544163942337,0.1562711673207253,0,True
41.6,-0.3089340925216674,-100.62399584054947,0.06846560382064294,0,True
41.63333333333333,-0.2575939893722534,-100.93292993307114,0.00620071323003447,0,True
41.666666666666664,-0.3781213760375976,-101.19052392244339,-0.03664344671830044,0,True
41.7,-0.402974009513855,-101.56864529848099,-0.06067200609021628,0,True
41.733333333333334,-0.32659721374511713,-101.97161930799484,-0.06148454826261064,0,True
41.766666666666666,-0.16643208265304563,-102.29821652173996,-0.03716383708155554,0,True
41.8,-0.22675752639770508,-102.464648604393,0.0038663501065483905,0,True
41.833333333333336,-0.23942387104034424,-102.69140613079071,0.04230039325634783,0,True
41.86666666666667,-0.37173968553543085,-102.93083000183105,0.056596380133018355,0,True
41.9,-0.4034428000450134,-103.30256968736649,0.03492550743794826,0,True
41.93333333333333,-0.410144329071045,-103.7060124874115,-0.018249069996761354,0,True
41.96666666666667,-0.32682996988296503,-104.11615681648254,-0.08548142079383081,0,True
42.0,-0.23035067319869995,-104.44298678636551,-0.14676459713361759,0,True
42.03333333333333,-0.3635846376419068,-104.67333745956421,-0.1896674726825212,0,True
42.06666666666667,-0.2587802410125732,-105.03692209720612,-0.2130992432548194,0,True
42.1,-0.30768775939941406,-105.29570233821869,-0.22395323158892058,0,True
42.13333333333333,-0.40647560358047485,-105.6033900976181,-0.23039262631962396,0,True
42.166666666666664,-0.21461915969848633,-106.00986570119858,-0.23646892869779548,0,True
42.2,-0.2858586907386779,-106.22448486089706,-0.24070005442783168,0,True
42.233333333333334,-0.36098235845565796,-106.51034355163574,-0.23823079982682904,0,True
42.266666666666666,-0.20063745975494388,-106.8713259100914,-0.2245417300138785,0,True
42.3,-0.2876687049865722,-107.07196336984634,-0.19876347256982752,0,True
42.333333333333336,-0.2780780792236328,-107.35963207483292,-0.16503311290558076,0,True
42.36666666666667,-0.22596704959869382,-107.63771015405655,-0.13090062257842433,0,True
42.4,-0.1937291622161865,-107.86367720365524,-0.10313247675304525,0,True
42.43333333333333,-0.29032522439956665,-108.05740636587143,-0.08269388786935153,0,True
42.46666666666667,-0.2786610126495361,-108.347731590271,-0.06179846625075246,0,True
42.5,-0.29502487182617193,-108.62639260292053,-0.026157288969951807,0,True
42.53333333333333,-0.2479090094566345,-108.9214174747467,0.03667850623675641,0,True
42.56666666666667,-0.22786891460418698,-109.16932648420334,0.12654038675749718,0,True
42.6,0.01376330852508545,-109.39719539880753,0.2246787530824443,0,True
42.63333333333333,-0.17215383052825928,-109.38343209028244,0.2989703868480934,0,True
42.666666666666664,-0.46830821037292486,-109.5555859208107,0.32011298402641847,0,True
42.7,-0.3578379154205323,-110.02389413118362,0.2796636125418197,0,True
42.733333333333334,-0.2929123640060425,-110.38173204660416,0.1973602960263451,0,True
42.766666666666666,-0.3473410606384277,-110.6746444106102,0.11216795763594072,0,True
42.8,-0.23854452371597293,-111.02198547124863,0.0628045728325055,0,True
42.833333333333336,-0.09561389684677123,-111.2605299949646,0.0693200820353379,0,True
42.86666666666667,-0.12349498271942137,-111.35614389181137,0.12533853361775799,0,True
42.9,-0.3206300735473632,-111.47963887453079,0.20389482962437291,0,True
42.93333333333333,-0.3832426071166993,-111.80026894807816,0.27171680858529945,0,True
42.96666666666667,-0.21417534351348874,-112.18351155519485,0.3023693689430961,0,True
43.0,-0.2619056701660156,-112.39768689870834,0.28203414164135854,0,True
43.03333333333333,-0.30313426256179815,-112.65959256887436,0.2092192545153844,0,True
43.06666666666667,-0.3450132608413696,-112.96272683143616,0.09313412275067627,0,True
43.1,-0.3417649269104004,-113.30774009227753,-0.0473098829449557,0,True
43.13333333333333,-0.39076828956604,-113.64950501918793,-0.18566923309004332,0,True
43.166666666666664,-0.32122921943664545,-114.04027330875397,-0.293559206473525,0,True
43.2,-0.3189242482185363,-114.36150252819061,-0.3494004609315414,0,True
43.233333333333334,-0.12171244621276854,-114.68042677640915,-0.3468223914835936,0,True
43.266666666666666,-0.21058714389801023,-114.80213922262192,-0.29764978101138867,0,True
43.3,-0.2024456262588501,-115.01272636651993,-0.22640633324457585,0,True
43.333333333333336,-0.28511595726013184,-115.21517199277878,-0.1584379541987298,0,True
43.36666666666667,-0.2850597500801086,-115.50028795003891,-0.1083420482577043,0,True
43.4,-0.3034204840660095,-115.78534770011902,-0.07542501732241955,0,True
43.43333333333333,-0.24341624975204468,-116.08876818418503,-0.04832456345825735,0,True
43.46666666666667,-0.28116810321807867,-116.33218443393707,-0.015228654704457846,0,True
43.5,-0.04623842239379883,-116.61335253715515,0.02702970672680172,0,True
43.53333333333333,-0.3215517997741699,-116.65959095954895,0.07061818466714324,0,True
43.56666666666667,-0.3790600895881653,-116.98114275932312,0.10183776278364774,0,True
43.6,-0.3181581497192382,-117.36020284891129,0.10896703965882347,0,True
43.63333333333333,-0.3595496416091919,-117.67836099863052,0.0868505596016894,0,True
43.666666666666664,-0.14580106735229492,-118.03791064023972,0.03682383749063456,0,True
43.7,-0.31754934787750244,-118.18371170759201,-0.034510625739937066,0,True
43.733333333333334,-0.4206352233886718,-118.50126105546951,-0.11464096943911412,0,True
43.766666666666666,-0.38393789529800415,-118.92189627885818,-0.18442856664690907,0,True
43.8,-0.2868629693984985,-119.30583417415619,-0.22170239877014772,0,True
43.833333333333336,-0.22477179765701294,-119.59269714355469,-0.2099784643333878,0,True
43.86666666666667,-0.20033681392669675,-119.8174689412117,-0.14723350096490745,0,True
43.9,-0.10774779319763182,-120.0178057551384,-0.048163637511333,0,True
43.93333333333333,-0.35933613777160645,-120.12555354833603,0.06233798142040317,0,True
43.96666666666667,-0.2843654155731201,-120.48488968610764,0.16060106069204566,0,True
44.0,-0.2063106894493103,-120.76925510168076,0.23347699382767087,0,True
44.03333333333333,-0.33496606349945074,-120.97556579113007,0.2807257313843177,0,True
44.06666666666667,-0.27376294136047363,-121.31053185462952,0.3107608785610299,0,True
44.1,-0.34994441270828247,-121.58429479598999,0.33324779245798564,0,True
44.13333333333333,-0.15905135869979856,-121.93423920869827,0.35247893424833754,0,True
44.166666666666664,-0.3381016850471497,-122.09329056739807,0.36478477744082566,0,True
44.2,-0.28837549686431885,-122.43139225244522,0.3613634917012626,0,True
44.233333333333334,-0.3801259994506836,-122.71976774930954,0.3345291708502456,0,True
44.266666666666666,-0.33980232477188116,-123.09989374876022,0.2829265278725225,0,True
44.3,-0.41851764917373663,-123.4396960735321,0.21220767645487604,0,True
44.333333333333336,-0.28932178020477295,-123.85821372270584,0.13114871357575122,0,True
44.36666666666667,-0.2817707657814026,-124.14753550291061,0.04643139418970003,0,True
44.4,-0.36587387323379517,-124.42930626869202,-0.03984403999176813,0,True
44.43333333333333,-0.31701552867889404,-124.79518014192581,-0.1281878261367307,0,True
44.46666666666667,-0.3937684297561646,-125.1121956706047,-0.21738803348784524,0,True
44.5,-0.30211639404296875,-125.50596410036087,-0.3017866722795229,0,True
44.53333333333333,-0.3176635503768921,-125.80808049440384,-0.3726029466412612,0,True
44.56666666666667,-0.36786150932312006,-126.12574404478073,-0.42263697541635153,0,True
44.6,-0.3710061907768249,-126.49360555410385,-0.45141968078115347,0,True
44.63333333333333,-0.0013465881347656248,-126.86461174488068,-0.46707198888211743,0,True
44.666666666666664,-0.23584467172622678,-126.86595833301544,-0.48166354129850525,0,True
44.7,-0.3894354701042176,-127.10180300474167,-0.5002899051804288,0,True
44.733333333333334,-0.3104820251464844,-127.49123847484589,-0.5106650589574281,0,True
44.766666666666666,-0.2712284326553344,-127.80172049999237,-0.4834164207900507,0,True
44.8,-0.2107204794883728,-128.0729489326477,-0.3871156774823247,0,True
44.833333333333336,-0.13173049688339233,-128.28366941213608,-0.21061409720457627,0,True
44.86666666666667,0.1803864240646362,-128.41539990901947,0.021603824335438136,0,True
44.9,-0.15110695362091064,-128.23501348495483,0.2528506395784627,0,True
44.93333333333333,-0.38807362318038946,-128.38612043857574,0.417574763345551,0,True
44.96666666666667,-0.20393872261047363,-128.77419406175613,0.4725182639888372,0,True
45.0,-0.4706425666809082,-128.9781327843666,0.4177271481758025,0,True
45.03333333333333,-0.40413653850555425,-129.44877535104752,0.2959953111676439,0,True
45.06666666666667,-0.26921355724334717,-129.85291188955307,0.17200228076757929,0,True
45.1,-0.268753707408905,-130.12212544679642,0.10243183473735208,0,True
45.13333333333333,-0.05984675884246826,-130.39087915420532,0.11209046855540515,0,True
45.166666666666664,-0.08395910263061523,-130.4507259130478,0.1874026606224324,0,True
45.2,-0.39009815454483027,-130.5346850156784,0.28879565216832986,0,True
45.233333333333334,-0.38765716552734375,-130.92478317022324,0.37263250496025324,0,True
45.266666666666666,-0.32284462451934814,-131.31244033575058,0.40889997414849966,0,True
45.3,-0.12481415271759032,-131.63528496026993,0.38681847106954365,0,True
45.333333333333336,-0.3078944683074951,-131.76009911298752,0.31141404863359606,0,True
45.36666666666667,-0.4454476833343506,-132.067993581295,0.1987522924642497,0,True
45.4,-0.3807772994041443,-132.51344126462936,0.07280013292287509,0,True
45.43333333333333,-0.3208196759223938,-132.8942185640335,-0.03887071850275385,0,True
45.46666666666667,-0.30996477603912354,-133.2150382399559,-0.11258891726906194,0,True
45.5,-0.20867115259170535,-133.52500301599503,-0.13672616676966232,0,True
45.53333333333333,-0.27025729417800903,-133.73367416858673,-0.11587812224253977,0,True
45.56666666666667,-0.2816606760025024,-134.00393146276474,-0.06860138194092862,0,True
45.6,-0.22097158432006833,-134.28559213876724,-0.019756151168361127,0,True
45.63333333333333,-0.20027804374694821,-134.5065637230873,0.00926118640796705,0,True
45.666666666666664,-0.35003614425659185,-134.70684176683426,0.008743122574332898,0,True
45.7,-0.3758785724639893,-135.05687791109085,-0.016008571088327428,0,True
45.733333333333334,-0.3116806745529175,-135.43275648355484,-0.04867020109246901,0,True
45.766666666666666,-0.2228320837020874,-135.74443715810776,-0.07221146727423894,0,True
45.8,-0.1680833101272583,-135.96726924180984,-0.07975119844659706,0,True
45.833333333333336,-0.27500998973846436,-136.1353525519371,-0.07870829240318405,0,True
45.86666666666667,-0.24065399169921875,-136.41036254167557,-0.08543721358763029,0,True
45.9,-0.3709825873374939,-136.6510165333748,-0.11432472762234089,0,True
45.93333333333333,-0.2743266820907593,-137.02199912071228,-0.16874893015411535,0,True
45.96666666666667,-0.31642627716064453,-137.29632580280304,-0.23922534215035302,0,True
46.0,-0.24900615215301508,-137.61275207996368,-0.3088947644209458,0,True
46.03333333333333,-0.34650862216949463,-137.8617582321167,-0.36216274093454054,0,True
46.06666666666667,-0.050297677516937256,-138.2082668542862,-0.391025705692627,0,True
46.1,-0.18511199951171872,-138.25856453180313,-0.395177213213401,0,True
46.13333333333333,-0.0890854001045227,-138.44367653131485,-0.37564436778615284,0,True
46.166666666666664,-0.40463840961456293,-138.53276193141937,-0.32682062446269583,0,True
46.2,-0.32166188955307,-138.93740034103394,-0.23509278484532173,0,True
46.233333333333334,0.15171211957931519,-139.259062230587,-0.08870226458534435,0,True
46.266666666666666,-0.06373363733291626,-139.1073501110077,0.10675755032845517,0,True
46.3,0.018376052379608154,-139.1710837483406,0.3202628743543022,0,True
46.333333333333336,-0.21349358558654788,-139.152707695961,0.5032410920624046,0,True
46.36666666666667,-0.2709791660308838,-139.36620128154755,0.6094091905311114,0,True
46.4,-0.2343020439147949,-139.63718044757843,0.6143996017231069,0,True
46.43333333333333,-0.3121737241744995,-139.87148249149323,0.5248473113031709,0,True
46.46666666666667,-0.31729698181152344,-140.18365621566772,0.3740476638601784,0,True
46.5,-0.35636281967163086,-140.50095319747925,0.2077308806715884,0,True
46.53333333333333,-0.3472658395767212,-140.85731601715088,0.06641367434677699,0,True
46.56666666666667,0.058835744857788086,-141.2045818567276,-0.028545013878927685,0,True
46.6,-0.31954890489578236,-141.1457461118698,-0.07903866424209285,0,True
46.63333333333333,-0.4403320550918579,-141.4652950167656,-0.1027722433767539,0,True
46.666666666666664,-0.05029284954071045,-141.90562707185745,-0.1197227696292882,0,True
46.7,-0.26791679859161377,-141.95591992139816,-0.14111537246446704,0,True
46.733333333333334,-0.3520389199256897,-142.22383671998978,-0.16557590815786327,0,True
46.766666666666666,-0.22895663976669312,-142.57587563991547,-0.182179237860235,0,True
46.8,-0.18847739696502683,-142.80483227968216,-0.17825243142332625,0,True
46.833333333333336,-0.2867497205734253,-142.9933096766472,-0.14818021132461,0,True
46.86666666666667,-0.06790465116500854,-143.2800593972206,-0.09812187668335712,0,True
46.9,-0.22174608707427973,-143.34796404838562,-0.043514015249114406,0,True
46.93333333333333,-0.3956938982009888,-143.5697101354599,-0.0008005739271031592,0,True
46.96666666666667,-0.30693614482879633,-143.9654040336609,0.02114570422892371,0,True
47.0,-0.22123169898986816,-144.27234017848969,0.02416356191392621,0,True
47.03333333333333,-0.2633406519889832,-144.49357187747955,0.0173979823872237,0,True
47.06666666666667,-0.2613741159439087,-144.75691252946854,0.011430369830658559,0,True
47.1,-0.3098191022872925,-145.01828664541245,0.01430158963787972,0,True
47.13333333333333,-0.29485243558883667,-145.32810574769974,0.030246918804033535,0,True
47.166666666666664,-0.28490781784057617,-145.62295818328857,0.05952783701120916,0,True
47.2,-0.2560840845108032,-145.90786600112915,0.0982263160956612,0,True
47.233333333333334,-0.31122887134552,-146.16395008563995,0.1384706688299094,0,True
47.266666666666666,-0.2621644735336304,-146.47517895698547,0.17018250509434577,0,True
47.3,-0.2154124975204468,-146.7373434305191,0.18464629679932246,0,True
47.333333333333336,-0.44202595949172974,-146.95275592803955,0.17878462078714505,0,True
47.36666666666667,-0.33829617500305176,-147.39478188753128,0.1576808903912169,0,True
47.4,-0.2843567132949829,-147.73307806253433,0.13284063987613684,0,True
47.43333333333333,-0.3361573815345764,-148.01743477582932,0.11625447403676796,0,True
47.46666666666667,-0.24402070045471194,-148.3535921573639,0.11378726149874421,0,True
47.5,-0.26262569427490234,-148.5976128578186,0.12211608680426848,0,True
47.53333333333333,-0.360584557056427,-148.8602385520935,0.13087641727501018,0,True
47.56666666666667,-0.22777813673019406,-149.22082310914993,0.1283479328137008,0,True
47.6,-0.4084357023239136,-149.44860124588013,0.10712833983126972,0,True
47.63333333333333,-0.3073444962501526,-149.85703694820404,0.06667239371498665,0,True
47.666666666666664,-0.2979007959365844,-150.1643814444542,0.011712417541201996,0,True
47.7,-0.35921424627304077,-150.46228224039078,-0.05193181358968996,0,True
47.733333333333334,-0.2621883153915405,-150.82149648666382,-0.12115206461121691,0,True
47.766666666666666,-0.337159514427185,-151.08368480205536,-0.19638683286949699,0,True
47.8,-0.22650039196014404,-151.42084431648254,-0.278838501760251,0,True
47.833333333333336,-0.31102919578552246,-151.6473447084427,-0.3656358832270376,0,True
47.86666666666667,-0.4020535945892334,-151.9583739042282,-0.44625125101068247,0,True
47.9,-0.39801800251007075,-152.36042749881744,-0.5037394744265498,0,True
47.93333333333333,0.01043027639389038,-152.75844550132751,-0.5215925389409062,0,True
47.96666666666667,-0.1482309699058533,-152.74801522493362,-0.4918011161461773,0,True
48.0,-0.14733219146728516,-152.89624619483948,-0.41732272578182666,0,True
48.03333333333333,-0.15800148248672488,-153.04357838630676,-0.30703294865424224,0,True
48.06666666666667,-0.28100216388702387,-153.2015798687935,-0.16890388628487352,0,True
48.1,-0.13086962699890134,-153.4825820326805,-0.008842301522865206,0,True
48.13333333333333,-0.1628025770187378,-153.6134516596794,0.16337991208764835,0,True
48.166666666666664,0.18627202510833737,-153.77625423669815,0.3274089925443778,0,True
48.2,-0.165942907333374,-153.5899822115898,0.45361088553188894,0,True
48.233333333333334,-0.32937735319137573,-153.7559251189232,0.5151383233325343,0,True
48.266666666666666,-0.34793961048126226,-154.08530247211456,0.5029550647440848,0,True
48.3,-0.40765190124511713,-154.43324208259583,0.4313354517137083,0,True
48.333333333333336,-0.11571574211120604,-154.84089398384094,0.3285433502779968,0,True
48.36666666666667,-0.28487658500671387,-154.95660972595215,0.21981998757743645,0,True
48.4,-0.06047850847244262,-155.24148631095886,0.11566264606929924,0,True
48.43333333333333,-0.39225077629089355,-155.3019648194313,0.013213058315578348,0,True
48.46666666666667,-0.35138851404190063,-155.6942155957222,-0.09218749503168129,0,True
48.5,-0.27214741706848145,-156.0456041097641,-0.195541253696057,0,True
48.53333333333333,-0.22274339199066165,-156.31775152683258,-0.2796274374343559,0,True
48.56666666666667,-0.26106786727905273,-156.54049491882324,-0.3223137065643916,0,True
48.6,-0.24072909355163574,-156.8015627861023,-0.308048403793711,0,True
48.63333333333333,0.13051509857177734,-157.04229187965393,-0.23635615923167966,0,True
48.666666666666664,-0.26567602157592773,-156.91177678108215,-0.12236224704795608,0,True
48.7,-0.15481394529342654,-157.17745280265808,0.011064776800416086,0,True
48.733333333333334,-0.1901096701622009,-157.3322667479515,0.14410765133084036,0,True
48.766666666666666,-0.2545582056045532,-157.5223764181137,0.26595560304119026,0,True
48.8,-0.27863550186157227,-157.77693462371826,0.3724663132847935,0,True
48.833333333333336,0.09837207198143004,-158.05557012557983,0.45904198666841595,0,True
48.86666666666667,-0.2644764184951782,-157.9571980535984,0.5160441823551342,0,True
48.9,-0.3319509029388427,-158.22167447209358,0.5317291851272854,0,True
48.93333333333333,-0.3552436828613282,-158.55362537503242,0.5002262216857974,0,True
48.96666666666667,-0.3354043960571289,-158.90886905789375,0.42668059282426424,0,True
49.0,-0.2710357904434204,-159.24427345395088,0.32462351605329665,0,True
49.03333333333333,-0.3546032905578614,-159.5153092443943,0.20807169965779096,0,True
49.06666666666667,-0.3029869794845581,-159.86991253495216,0.08470058654539772,0,True
49.1,-0.2769813537597656,-160.17289951443672,-0.045347897183869945,0,True
49.13333333333333,-0.33277368545532227,-160.4498808681965,-0.1846001522301177,0,True
49.166666666666664,-0.41891431808471674,-160.7826545536518,-0.33059988603275087,0,True
49.2,-0.3612595796585083,-161.20156887173653,-0.4707439752146011,0,True
49.233333333333334,-0.205327033996582,-161.56282845139503,-0.5837510036101731,0,True
49.266666666666666,-0.2779566645622253,-161.76815548539162,-0.6475836170304807,0,True
49.3,-0.32840240001678467,-162.04611214995384,-0.6495992781564004,0,True
49.333333333333336,-0.1487756967544556,-162.37451454997063,-0.594118625559937,0,True
49.36666666666667,-0.13876676559448242,-162.52329024672508,-0.5040346702887762,0,True
49.4,-0.20181632041931152,-162.66205701231956,-0.4144018209601831,0,True
49.43333333333333,-0.28643929958343506,-162.86387333273888,-0.3586423682390273,0,True
49.46666666666667,-0.2686694860458374,-163.1503126323223,-0.35266952958106645,0,True
49.5,-0.25669336318969727,-163.41898211836815,-0.38496843649982576,0,True
49.53333333333333,-0.3409712314605713,-163.67567548155785,-0.4185361557580983,0,True
49.56666666666667,-0.34759759902954107,-164.01664671301842,-0.4053467750115739,0,True
49.6,-0.08785581588745116,-164.36424431204796,-0.30841238918803365,0,True
49.63333333333333,-0.06349730491638184,-164.4521001279354,-0.12169287538195595,0,True
49.666666666666664,0.08934822678565979,-164.5155974328518,0.12342707306370612,0,True
49.7,-0.24916088581085202,-164.42624920606613,0.37081392274497477,0,True
49.733333333333334,-0.2981839179992676,-164.67541009187698,0.5656050672355968,0,True
49.766666666666666,-0.269256591796875,-164.97359400987625,0.6785914315489947,0,True
49.8,-0.3891171216964721,-165.24285060167313,0.7151811566862796,0,True
49.833333333333336,-0.3497840166091919,-165.6319677233696,0.7056561238440512,0,True
49.86666666666667,-0.11797523498535156,-165.9817517399788,0.6846533303584956,0,True
49.9,-0.22080886363983152,-166.09972697496414,0.6728712754062036,0,True
49.93333333333333,-0.29978108406066895,-166.32053583860397,0.6710655126600411,0,True
49.96666666666667,-0.35539352893829346,-166.62031692266464,0.6672523817948788,0,True
50.0,-0.3643707036972046,-166.97571045160294,0.6490565359846675,0,True
50.03333333333333,-0.33895719051361084,-167.34008115530014,0.6114827496500257,0,True
50.06666666666667,-0.32716208696365356,-167.67903834581375,0.5562084775391851,0,True
50.1,-0.28806453943252563,-168.0062004327774,0.48560351690403836,0,True
50.13333333333333,-0.26375043392181396,-168.29426497220993,0.397831540476559,0,True
50.166666666666664,-0.33179312944412237,-168.55801540613174,0.2875254560371789,0,True
50.2,-0.4193713665008545,-168.88980853557587,0.15162336063767548,0,True
